latitude,longitude,api
3812809.9511513487,-11439960.202917663,42003335950000
3812276.0034870463,-11439980.57438448,42003335970000
3786220.8313576262,-11411779.339864874,42003393990000
3681982.2775329608,-10527519.0873205,42005303930000
3255405.7503087134,-10796779.005609741,42007309000000
3981855.0377255795,-10964696.887746021,42009417870000
3981688.6831345563,-10964462.782856883,42009418160000
3359677.4156611618,-10978376.494691644,42013017920000
3359232.7451337865,-10974164.83307697,42013018320000
3359517.113897026,-10975532.393021367,42013018840000
3359289.6946685477,-10974923.8093652,42013018850000
3360151.976222201,-10977564.752964778,42013030720000
3360386.529595134,-10977427.718671614,42013031040000
3359933.3177510793,-10978112.556178974,42013300070000
3359190.6687379116,-10976395.230394505,42013340970000
3359209.990812428,-10976004.721620802,42013341370000
3360162.1464717565,-10977876.447539002,42013341390000
3359399.780849187,-10978241.352829821,42013341470000
3358851.138737561,-10981311.210427428,42013341810000
3369824.6271460857,-10946394.627625717,42013342710000
3340052.4145203205,-10959800.277304497,42013342720000
3341179.012426951,-10960066.776165457,42013342730000
3340908.493263528,-10959457.969870308,42013342790000
3340158.913598513,-10960103.622916909,42013342820000
3341294.025999219,-10959148.390366413,42013342840000
3341836.3550849166,-10958429.48909487,42013342850000
3340684.693919354,-10958352.010729278,42013342860000
3338972.11280926,-10965206.28573589,42013342890000
3341438.49258311,-10958682.740936425,42013342900000
3338597.3088929155,-10965463.211120643,42013342930000
3339774.175430797,-10965325.063632568,42013343000000
3368883.604599797,-10947201.69393397,42013343030000
3369649.0628854963,-10947460.511750063,42013343040000
3334897.6872601393,-10961732.89498416,42013343160000
3370054.645312021,-10959016.588089313,42013343190000
3355825.626542189,-10933352.992681831,42013343260000
3356154.0220178794,-10932931.203131216,42013343330000
3356238.409788838,-10934098.833270147,42013343350000
3355339.5297917086,-10931695.779422391,42013343490000
3355342.8339184467,-10931691.771920724,42013343520000
3334651.9114149036,-10960727.457343316,42013343650000
3356788.468580105,-10927470.536829844,42013343680000
3334979.9096209835,-10960440.253057068,42013343700000
3335651.6650630184,-10960197.131289177,42013343760000
3357863.9962455314,-10931660.825102283,42013344240000
3356687.300781476,-10930053.48297472,42013344350000
3357804.1294295224,-10956014.5240616,42013344420000
3351440.091853369,-10938114.12730306,42013344450000
3338599.4665553477,-10988764.050336037,42013344460000
3331946.9009606116,-10986998.968490018,42013344470000
3331323.7900005784,-10985267.727769202,42013344480000
3357457.136028786,-10928452.26341915,42013344520000
3356117.54734988,-10930304.731065439,42013344640000
3354221.3844686835,-10942792.440223139,42013344670000
3354226.3402400604,-10942791.549667213,42013344680000
3356336.5239588344,-10944104.229102647,42013344690000
3354408.180212367,-10942548.76185779,42013344710000
3350496.6942950278,-10939251.589859987,42013344730000
3350701.095628384,-10939003.458715009,42013344740000
3356269.546978934,-10929773.737094356,42013344790000
3356414.1770111807,-10936079.540969834,42013344860000
3367176.526883264,-10956674.871280985,42013344890000
3356752.5005428866,-10928458.608630124,42013344900000
3336736.2652210435,-10971938.331941616,42013345270000
3355041.0180560052,-10937744.880552098,42013345380000
3355050.2948198984,-10937752.895555437,42013345390000
3331177.530603202,-10967241.762625048,42013345400000
3360192.0216251155,-10935342.160662817,42013345410000
3360201.5562627567,-10935349.953027172,42013345420000
3354635.8966874494,-10938256.950209748,42013345470000
3354645.046092044,-10938264.742574103,42013345480000
3349630.5961288535,-10935578.714580752,42013345490000
3355460.130952557,-10956914.764783645,42013345500000
3331190.596208159,-10969377.315736424,42013345530000
3331150.130929634,-10967489.448492061,42013345580000
3349475.116037902,-10935770.518063389,42013345730000
3349469.399892881,-10935776.640635384,42013345740000
3362189.4878711705,-10938904.495687691,42013345810000
3352154.354338279,-10943083.429372072,42013345890000
3360191.0045975065,-10937130.619601902,42013345930000
3360182.359865997,-10937138.74592473,42013346070000
3356432.6053802636,-10941603.770700447,42013346080000
3356443.154044477,-10941609.336674986,42013346090000
3341007.890325575,-10973486.006822115,42013346100000
3364059.70860302,-10936274.238759229,42013346110000
3333729.2457507597,-10964839.376694238,42013346130000
3349488.072642423,-10935792.448003074,42013346160000
3360594.64358259,-10938842.37941183,42013346230000
3360582.5660165804,-10938840.153022014,42013346240000
3345007.6214406746,-10969289.039380224,42013346280000
3333236.2193670194,-10964954.369728226,42013346330000
3368311.4163619825,-10944282.340287914,42013346350000
3343916.123529486,-10969033.449829364,42013346390000
3358052.7500844398,-10936054.04880644,42013346460000
3360656.4300404605,-10931960.83112997,42013346480000
3360648.674934203,-10931970.070647707,42013346490000
3337904.9711998077,-10957913.857213516,42013346530000
3335855.837735901,-10969744.670056043,42013346580000
3354325.074841444,-10952609.038199252,42013346590000
3337052.1318511516,-10981949.961665599,42013346600000
3331184.2536798767,-10966496.144675713,42013346610000
3359512.029019612,-10933856.713377671,42013346630000
3334416.798145701,-10961711.187683454,42013346690000
3359694.1959741763,-10932600.58424356,42013346700000
3352074.1852835533,-10965517.201073678,42013346810000
3352075.582838195,-10965505.06724918,42013346880000
3358314.7220016182,-10934532.088728314,42013346900000
3358307.6038216837,-10934522.181293633,42013346970000
3357719.731661276,-10943497.203919351,42013347020000
3357727.4850482214,-10943487.964401614,42013347030000
3335023.5587352947,-10964118.360352369,42013347080000
3360242.237460692,-10934772.316189446,42013347100000
3336106.457953494,-10973954.550558863,42013347110000
3336106.457953494,-10973942.194095384,42013347120000
3349709.7341638277,-10965743.736237442,42013347250000
3349711.385524334,-10965731.936371418,42013347270000
3351253.338009004,-10944266.19896175,42013347330000
3359770.089019733,-10940433.023615776,42013347390000
3359761.9530609823,-10940442.26313351,42013347400000
3332642.099921332,-10965611.154723909,42013347460000
3332642.3536502123,-10965578.092835141,42013347470000
3358366.5831426084,-10941622.917652866,42013347560000
3336274.217520189,-10969341.359540898,42013347580000
3361741.1727284845,-10959023.267258761,42013347590000
3337185.2574819024,-10989541.839618208,42013347630000
3337173.328152656,-10989544.066008024,42013347640000
3356640.9112835,-10935762.725699034,42013347650000
3364232.4007679974,-10934719.43943132,42013347680000
3364224.643560407,-10934728.344990581,42013347690000
3353754.533717345,-10944511.435799967,42013347720000
3336575.987035338,-10969219.57601797,42013347730000
3335706.7368112323,-10976016.744125808,42013347770000
3336422.3096090676,-10967428.556730598,42013347790000
3335701.407277235,-10976005.61217673,42013347800000
3335833.2504244642,-10974664.768910123,42013347860000
3355548.9622266116,-10942339.147256628,42013347870000
3351421.670438651,-10946301.898489887,42013347880000
3336253.786778894,-10966229.200536791,42013347890000
3333072.050459843,-10990511.209744038,42013347930000
3333074.8415680635,-10990523.00961006,42013347940000
3356047.1400872087,-10930466.25564658,42013348000000
3356054.892493065,-10930457.016128846,42013348010000
3335675.267212873,-10977254.950821903,42013348020000
3335664.100599114,-10977250.60936176,42013348030000
3357289.362267475,-10946710.997618552,42013348050000
3357021.055777266,-10947113.974175224,42013348060000
3357030.969420878,-10947106.849727813,42013348070000
3356681.2002354567,-10929700.822827887,42013348090000
3356686.28402361,-10929713.513249837,42013348100000
3357011.142141092,-10947121.098622635,42013348180000
3359847.762253248,-10961720.761159664,42013348260000
3333345.7087216643,-10977798.189936973,42013348270000
3333344.9474947653,-10977786.501390439,42013348280000
3357224.6682572877,-10928319.904544596,42013348290000
3349297.916689585,-10936013.083233828,42013348300000
3357304.487238908,-10928649.521556834,42013348310000
3349305.792165829,-10936003.7323966,42013348320000
3349313.5406228285,-10935994.381559376,42013348330000
3349262.9851982,-10936051.822416624,42013348340000
3355926.660659156,-10945796.619321177,42013348350000
3360703.7235739157,-10944497.854822092,42013348370000
3355000.098709379,-10962367.30476219,42013348400000
3334678.176350287,-10981375.441773616,42013348470000
3354999.7174738236,-10962355.282257184,42013348510000
3354777.3319408507,-10963837.723916078,42013348770000
3331397.4911388634,-10968880.385529524,42013348780000
3350259.013431562,-10954523.399482425,42013348840000
3358921.56094061,-10944871.999630647,42013348870000
3358912.4085753104,-10944863.98462731,42013348880000
3353387.697667682,-10957229.131025646,42013349000000
3353375.372559654,-10957228.908386664,42013349010000
3331369.203046107,-10968368.204552384,42013349050000
3339053.471914428,-10978579.65276234,42013349060000
3339053.471914428,-10978567.630257336,42013349070000
3353210.572991656,-10959855.825730404,42013349080000
3353975.6313659735,-10955913.223324979,42013349130000
3353987.8299645083,-10955912.889366506,42013349140000
3353995.5811631717,-10955739.008321887,42013349150000
3353984.2720387727,-10955739.008321887,42013349160000
3353210.1918076817,-10959867.84823541,42013349180000
3350877.170407317,-10954080.570548048,42013349320000
3360281.3932320597,-10939672.377535185,42013349330000
3355323.771660165,-10962389.234701876,42013349400000
3354723.7058176817,-10965044.983793732,42013349430000
3355090.7060042825,-10963705.698999997,42013349450000
3350622.713886334,-10957300.932097208,42013349480000
3333682.5559013486,-10992351.209607359,42013349490000
3331368.5687846243,-10967078.790890526,42013349540000
3369190.8257427914,-10941891.75422313,42013349560000
3333680.779660315,-10992260.818180835,42013349590000
3358172.6133495714,-10958559.7328991,42013349600000
3350258.632332587,-10962530.610455185,42013349630000
3350258.632332587,-10962518.58795018,42013349640000
3356702.0437793094,-10929714.069847291,42013349670000
3359960.395609539,-10956656.169606533,42013349680000
3356062.6449034717,-10930447.442652637,42013349690000
3349092.901907616,-10936266.1124364,42013349700000
3349100.650240056,-10936256.872918665,42013349710000
3349108.779642898,-10936247.63340093,42013349720000
3359960.395609539,-10956644.147101527,42013349730000
3361228.794881731,-10950480.275576813,42013349740000
3361219.259502339,-10950472.81717093,42013349750000
3345248.1287578647,-10964045.4460859,42013349840000
3345260.31931886,-10964045.223446917,42013349850000
3350258.632332587,-10962506.2314867,42013349930000
3350258.632332587,-10962494.097662205,42013349940000
3360233.3384379363,-10954267.698612073,42013349950000
3355787.6277470556,-10954867.93330643,42013349960000
3348271.858403153,-10942304.526894992,42013349970000
3345261.081229294,-10964992.774952551,42013350030000
3345222.2238529813,-10961883.398935713,42013350040000
3348563.9936685283,-10941057.303320143,42013350090000
3334774.7353270045,-10981222.934071228,42013350220000
3334784.632344544,-10981215.586984836,42013350230000
3347609.3702997933,-10959930.966386689,42013350300000
3347608.608254334,-10959918.832562193,42013350310000
3333836.8360280436,-10992505.943699561,42013350340000
3333834.171635665,-10992494.36647252,42013350350000
3354636.532062566,-10965180.459614027,42013350380000
3354648.477120399,-10965183.242601298,42013350390000
3368211.3050552234,-10943846.969759423,42013350400000
3347609.624314957,-10959691.295523012,42013350530000
3347598.066629977,-10959688.512535742,42013350550000
3333845.8442157633,-10992541.565936616,42013350560000
3333843.0529456753,-10992529.988709575,42013350570000
3333840.1348003033,-10992517.743565585,42013350580000
3334274.5648841606,-10993619.027288005,42013350590000
3334275.1992842667,-10993606.782144018,42013350600000
3334275.4530443186,-10993594.64831952,42013350610000
3334701.396118995,-10996080.189909954,42013350830000
3334698.224017052,-10996068.167404946,42013350840000
3334704.568221694,-10996091.989775976,42013350850000
3345161.5253035384,-10956374.753933806,42013350860000
3345162.66816069,-10956362.731428802,42013350870000
3362383.0080742366,-10947838.441421308,42013350880000
3364069.500366358,-10942839.751006726,42013350900000
3363912.7058606707,-10937654.934403539,42013350940000
3358241.633729391,-10941811.60418976,42013350950000
3342570.921353453,-10975228.602130992,42013350960000
3342577.904117712,-10970405.796511864,42013350970000
3342561.1454896643,-10975221.143725108,42013350980000
3354717.3520260286,-10966629.505425684,42013351000000
3354716.9707986247,-10966641.750569671,42013351010000
3357401.3383066314,-10928537.088871133,42013351020000
3357390.7888776707,-10928531.188938122,42013351030000
3342581.3320215116,-10970403.904080521,42013351040000
3337901.417588902,-10973752.950961037,42013351210000
3337901.417588902,-10973764.973466042,42013351220000
3348004.115740235,-10961492.556203537,42013351230000
3344681.5340108555,-10963526.697258802,42013351270000
3364750.1093092845,-10939876.314842317,42013351280000
3351141.1599257304,-10944558.1899861,42013351290000
3351150.6880385512,-10944565.871030966,42013351300000
3351160.216158232,-10944573.663395321,42013351310000
3364750.617998759,-10939873.309216065,42013351320000
3355911.7914387695,-10930654.385586021,42013351330000
3356994.2381375865,-10960246.891101561,42013351370000
3356993.856844522,-10960234.534638083,42013351380000
3337889.741445483,-10970847.734890314,42013351400000
3337890.1221891297,-10970941.688540542,42013351430000
3332496.2066154457,-10966291.762090616,42013351440000
3359706.5269753584,-10939704.548868023,42013351470000
3342505.410507772,-10972108.094165076,42013351480000
3339064.387526534,-10982977.885843584,42013351550000
3339072.5107785766,-10982968.86896483,42013351560000
3337932.3848016043,-10976020.751627475,42013351640000
3337933.7808661754,-10976024.202531692,42013351650000
3359695.975705596,-10939698.648935013,42013351660000
3345621.21579706,-10962340.142806437,42013351720000
3357304.6143395826,-10928646.515930584,42013351730000
3342885.4033090184,-10955191.984344129,42013351740000
3357294.0649878304,-10928640.615997571,42013351760000
3357283.388544029,-10928634.493425578,42013351770000
3356916.8358713505,-10958796.620775506,42013351800000
3353488.7131610485,-10958854.506910717,42013351810000
3353500.657182331,-10958854.506910717,42013351820000
3357869.716019218,-10956307.62828086,42013351830000
3357881.0284677986,-10956312.637657944,42013351840000
3351381.7786353515,-10946396.186098589,42013351850000
3351373.774880381,-10946405.202977344,42013351860000
3356916.8358713505,-10958808.754600001,42013351900000
3356538.7278677067,-10965399.98164987,42013351930000
3349814.659478804,-10938513.764275009,42013352000000
3339004.0979206134,-10976997.691478679,42013352010000
3349542.693761631,-10966009.789820438,42013352030000
3357293.556585551,-10928643.621623823,42013352210000
3345063.8748731297,-10966700.861219283,42013352250000
3344994.03430429,-10964950.362226557,42013352320000
3345031.3672171338,-10958846.49190738,42013352330000
3342951.5508462633,-10972503.27835739,42013352340000
3345066.033587486,-10958834.135443904,42013352350000
3356223.921488651,-10952923.404441252,42013352410000
3364310.7361035277,-10942295.510016236,42013352420000
3364301.198497225,-10942287.828971373,42013352430000
3335782.873244576,-10978853.943987656,42013352760000
3335779.7008844763,-10978865.74385368,42013352770000
3345063.8748731297,-10966713.329002252,42013352840000
3334960.1153024365,-10996282.457424723,42013352910000
3339334.869106946,-10964596.922843289,42013353070000
3335741.6326223603,-10979024.37412806,42013353130000
3336198.966559985,-10996509.103907978,42013353180000
3334015.605289173,-10993387.482747154,42013353220000
3337325.8720851527,-10996215.99968872,42013353510000
3339651.9399375017,-10996235.925877571,42013353620000
3343815.6889037956,-10963350.367185386,42013353630000
3335758.509538442,-10979144.042580664,42013353640000
3335759.9053745656,-10979131.908756167,42013353650000
3336982.714153499,-10974113.514791714,42013353660000
3345014.097557308,-10965653.5674499,42013353670000
3335014.422862297,-10980644.963275028,42013353800000
3343314.4159498704,-10974791.89576861,42013353860000
3342623.6095745508,-10963454.89618724,42013353870000
3343075.213345849,-10974056.853170902,42013353960000
3343076.7369156615,-10974046.72309724,42013353980000
3355845.1978705884,-10933235.773258027,42013353990000
3355850.7896840232,-10933227.090337744,42013354000000
3355932.379594526,-10933101.187993657,42013354010000
3355937.9714448354,-10933092.616392866,42013354020000
3339661.332863835,-10996228.133513216,42013354070000
3339064.387526534,-10982977.885843584,42013354280000
3339219.999437828,-10982840.628911434,42013354290000
3356236.6305230474,-10966589.76436747,42013354300000
3344321.4249692657,-10963394.004425777,42013354340000
3337391.230462561,-10965485.25237982,42013354410000
3331897.553364618,-10991974.949728478,42013354810000
3331908.4631001535,-10991974.949728478,42013354820000
3331952.9901368194,-10992008.568214696,42013354920000
3342556.7019175994,-10957860.869135898,42013355120000
3338620.53551283,-10965619.169727243,42013355180000
3338615.712495516,-10965629.077161925,42013355230000
3340672.888386594,-10968485.090017715,42013355560000
3356160.376499949,-10929915.001528172,42013355570000
3356153.005301031,-10929923.350489981,42013355580000
3356145.634106222,-10929931.699451793,42013355590000
3340684.0592130255,-10968485.090017715,42013355600000
3336050.6231666305,-10980028.253296034,42013355610000
3336050.6231666305,-10980039.385245115,42013355620000
3343239.3789998093,-10957457.22466228,42013355640000
3343232.268921655,-10957465.796263073,42013355650000
3337831.107054391,-10965486.254255237,42013355780000
3337820.7001115954,-10965485.586338293,42013355790000
3337776.9148928206,-10965455.307436798,42013355800000
3357694.4378567934,-10928637.499051828,42013356050000
3357683.3797765784,-10928639.39148317,42013356060000
3331226.114422404,-10991920.514497481,42013356070000
3331214.9515448525,-10991920.514497481,42013356080000
3331203.788676663,-10991920.514497481,42013356090000
3343020.2379855085,-10957658.935579598,42013356140000
3343013.128024832,-10957667.50718039,42013356150000
3337575.631657259,-10960412.645823352,42013356220000
3337541.746317986,-10960391.16116163,42013356230000
3341220.5238330956,-10964546.717752941,42013356460000
3341226.617261443,-10964533.916011501,42013356470000
3341232.075960045,-10964524.231215801,42013356480000
3348826.412839625,-10936483.853360392,42013356650000
3348834.6690934603,-10936491.311766276,42013356660000
3335215.2866300135,-10996289.693191625,42013356730000
3335226.1990884244,-10996291.585622968,42013356740000
3335237.2384450017,-10996293.478054313,42013356750000
3335248.277810749,-10996295.370485654,42013356760000
3335609.1559203635,-10965014.148294782,42013356770000
3335599.892752102,-10965020.382186268,42013356780000
3335590.6295902953,-10965026.616077753,42013356790000
3335581.2395424535,-10965032.627330253,42013356800000
3348842.9253524425,-10936498.77017216,42013357050000
3355670.7090624124,-10944873.112825556,42013357100000
3355677.6987373265,-10944864.318585783,42013357110000
3355684.5613308395,-10944855.6356655,42013357120000
3336471.1664015534,-10996418.712481454,42013357500000
3336481.6991881514,-10996415.706855202,42013357510000
3335808.252152636,-10996419.825676363,42013357520000
3335819.291992771,-10996421.718107706,42013357530000
3335830.204947209,-10996423.61053905,42013357540000
3336492.61268669,-10996412.58990946,42013357550000
3355904.5474656667,-10930662.845867323,42013357570000
3355890.3137055165,-10930676.64948418,42013357580000
3355897.176409389,-10930671.306148622,42013357590000
3355882.815570171,-10930684.8871265,42013357600000
3355875.698699876,-10930693.570046782,42013357610000
3355868.454746549,-10930702.030328082,42013357620000
3295505.939763594,-10891603.062937777,42025312100000
3319439.016329101,-10910142.656212453,
3871839.6323943767,-11284221.897588568,
3871725.0479416163,-11283526.03945162,42025335730000
3870690.1293227356,-11281741.699333694,42033305030000
3870579.5296821897,-11282266.570732784,42033306310000
3871263.5422058254,-11281925.487812994,42033307210000
3729035.126113838,-10837047.27293134,42033307760000
3729210.0012559034,-10838141.209567362,42033308180000
3956605.1845231047,-10527829.891338794,42035301410000
3404794.7838360337,-10634721.649385767,42035301420000
3119349.0651104623,-10914139.582529387,42037300280000
3119315.217210873,-10912306.15051602,42039323720000
3117435.600072773,-10912892.024996065,42047012580000
3117052.3388663973,-10915216.042005356,42047012630000
3116132.3797296337,-10914735.809722073,42047012720000
3116107.4054318415,-10913354.557480311,42047012730000
3114660.9696887876,-10916475.622043682,42047012750000
3112923.170722036,-10917344.13671085,42047012790000
3111760.42960807,-10917121.609048756,42047012880000
3112125.445583146,-10915625.475092493,42047012960000
3114292.1423583706,-10915451.03745042,42047013000000
3113732.302402795,-10912835.363375252,42047013040000
3112225.3148021353,-10916923.571674634,42047015140000
3111883.2656660527,-10916714.068392962,42047016540000
3112704.322381984,-10916970.54849975,42047300860000
3120920.271851547,-10909002.410668258,42047301050000
3113650.4008316156,-10914253.462368468,42047301130000
3113089.712466655,-10915774.977168629,42047305840000
3112871.98512405,-10914849.689561155,42047306060000
3116955.682262988,-10914438.030084202,42047306070000
3114245.0719959573,-10915666.997262562,42047306080000
3115696.959195074,-10914943.643211385,42047306160000
3115374.804117531,-10915420.090631979,42047306530000
3114422.8664446035,-10914981.714477237,42047306540000
3129719.9783859923,-10923617.435295016,42047306550000
3116738.2697707685,-10910842.967129033,42047306560000
3119659.8201136296,-10910777.622587938,42047306860000
3118700.098908646,-10914788.909119183,42047307010000
3119840.5557835717,-10910561.106178345,42047307630000
3119392.7802304653,-10911131.061971206,42047308030000
3119903.757609522,-10910254.5323007,42047308340000
3155877.45194635,-10911393.108052533,42047308790000
3115596.066424535,-10912986.98052171,42047309590000
3118874.4525526133,-10911756.788828954,42047309910000
3111513.512396997,-10916776.629946787,42047310710000
3117572.347799995,-10916469.388152197,42047310860000
3120074.7536968817,-10911338.784141028,42047312030000
3115502.16687181,-10915416.751047257,42047312320000
3115272.914743582,-10916705.162833696,42047312370000
3120681.4381109416,-10912027.740469545,42047313020000
3118218.6392876236,-10914858.8177594,42047313360000
3117250.7742062015,-10914786.571409876,42047314850000
3119264.2581651225,-10909399.598611409,42047314860000
3119248.146152308,-10909352.844425274,42047315400000
3113884.6206155,-10913656.344619852,42047317010000
3119585.5030794274,-10909372.770614127,42047317280000
3119759.368084021,-10909189.872690754,42047317460000
3119310.720817055,-10908703.740474459,42047317530000
3119420.133474662,-10908921.592717942,42047317540000
3119554.402453944,-10909157.812677404,42047317820000
3119931.7363741673,-10909568.025000978,42047317830000
3119254.640914943,-10908433.902028777,42047318150000
3119311.720015557,-10908338.501225166,42047318410000
3108105.9223117875,-10935206.350884048,42047318450000
3155712.2790673487,-10924724.730269935,42047319370000
3110273.8736048513,-10918228.681384694,42047321590000
3112062.6531740855,-10918260.29612008,42047324180000
3125810.6355078835,-10920906.694374708,42047324230000
3130624.952633861,-10923814.58211321,42047324240000
3120786.9891330223,-10911835.046430983,42047324280000
3120643.5898309485,-10911267.984944882,42047324290000
3113429.918175565,-10913732.153193083,42047324320000
3110664.9391021985,-10911823.691842923,42047324330000
3113367.86903557,-10911608.511267219,42047324360000
3119580.5069903787,-10909925.583205406,42047324370000
3114322.7319355197,-10911733.745694362,42047324380000
3114298.509979158,-10917399.128539303,42047324400000
3120620.231372357,-10911587.026605494,42047324410000
3120015.4231899576,-10911172.584141271,42047324440000
3110263.263935593,-10912171.676571142,42047324450000
3113051.010686254,-10910816.02781226,42047324460000
3109695.4710459486,-10912555.506175399,42047324470000
3117056.459899127,-10909364.310332827,42047324480000
3116713.6690282426,-10914951.324256249,42047324510000
3119516.0576007264,-10911043.787490424,42047324530000
3126497.169310592,-10923792.652173525,42047324550000
3109431.2410859214,-10915920.471743098,42047324580000
3113839.9237888954,-10910879.03464405,42047324590000
3108434.5258577657,-10918179.478169763,42047324600000
3114691.560067033,-10909899.868403032,42047324620000
3108410.688426997,-10917289.1448824,42047324660000
3124787.395061909,-10920909.366042487,42047324700000
3124350.4569967655,-10921205.141929524,42047324720000
3152065.825923338,-10923400.58492695,42047324870000
3112774.1087909928,-10910307.965656282,42047324940000
3128040.5559110604,-10915290.737383679,42047325100000
3482623.599668658,-10504215.576437328,42047325310000
3482181.12373829,-10504229.157415204,42047325360000
3476669.6766476054,-10504502.892043065,42071201180000
3477076.0454626638,-10503860.578581188,42071303270000
3724433.3867101087,-10605558.614465708,42071316700000
3725108.037017629,-10606419.22544903,42071320880000
3724804.8584515606,-10604530.46764874,42073309440000
3975793.8738841326,-10948664.877320956,42073309860000
3975521.8867978035,-10947950.762787517,42073310000000
3974870.2131414986,-10948096.813959438,42077349710000
3968841.038546777,-10943326.773778945,42077349720000
3967840.199924816,-10943201.539351804,42077349820000
3967821.500976662,-10942788.544040961,42077349920000
3972321.8760110936,-10950545.063520454,42077349930000
3971107.9056809526,-10950371.293795327,42077349940000
3979920.712379747,-10948562.240750445,42077349960000
3976048.2243731664,-10908313.009061774,42077349970000
3977052.983745922,-10912517.657548528,42077350340000
3971514.062468045,-10949883.157828199,42077350450000
3971008.2391284043,-10943645.704120068,42077350460000
3495099.4207951017,-10751700.84572995,42077350740000
3495102.503730753,-10751651.308556547,42077351850000
3973762.7464654786,-10850147.239288399,42089327400000
3977271.002835611,-10793060.04406132,42089327590000
3977331.6906737234,-10793431.405882608,42097328820000
3965954.029322317,-10850477.412898092,42097330980000
3959905.617155837,-10848655.558111768,42097331300000
3968790.279927882,-10849672.016382203,42097335490000
3962925.5557258963,-10847808.528106324,42097336020000
3968054.0379074235,-10848988.848667204,42097337310000
3968156.2167307846,-10849827.529710842,42097337560000
3962273.3914971333,-10848146.1601219,42097338120000
3962289.0109675545,-10849578.285370955,42097338160000
3965931.861337866,-10851276.909480968,42097338170000
3971079.7157241926,-10847820.105333365,42097338230000
3963095.7786501846,-10848749.511761999,42097338340000
3966720.72056571,-10849119.537749397,42097338520000
3963574.552416651,-10847895.691267615,42097338530000
3976527.402263562,-10851252.530512486,42097338640000
3968749.2724698735,-10851167.259782538,42097338660000
3965406.9198773284,-10849445.258579457,42097338700000
3965620.445717315,-10849659.771238215,42097338710000
3964121.0409800783,-10848407.760925265,42097338750000
3967945.983116242,-10850616.339622604,42097338770000
3964309.974753368,-10851711.834731499,42097338800000
3963246.9120072327,-10848099.739894237,42097338820000
3962065.9348925473,-10847321.505334102,42097338830000
3962030.157682201,-10847794.056572521,42097338960000
3967054.3359623034,-10850218.149804035,42097339000000
3974468.348266685,-10850432.662462795,42097339010000
3968979.290127795,-10851252.085234523,42097339020000
3960892.153096509,-10851377.876259118,42097339060000
3962193.6924767923,-10851457.692334019,42097339080000
3962106.7851263676,-10851764.600170134,42097339140000
3971331.958166222,-10849544.889523717,42097339230000
3965362.318980846,-10850723.206333764,42097339280000
3968981.6945177736,-10850361.751947157,42097339340000
3969071.191612117,-10850584.279609255,42097339360000
3968427.3623074456,-10851145.886440305,42097339380000
3965765.202190973,-10850175.18048059,42097339410000
3975989.5481710266,-10850626.692335246,42097339440000
3960559.7834572736,-10850572.813701702,42097339450000
3961875.1688823854,-10851119.948998952,42097339530000
3961494.1802718723,-10851639.811020955,42097339560000
3974846.6915655914,-10850354.850138728,42097339850000
3967933.1608595825,-10849370.785840116,42097339860000
3961562.3941980894,-10848775.894481316,42097339870000
3967151.030137166,-10851505.448395569,42097339980000
3963946.5303392396,-10848253.360791532,42097340000000
3961838.8582841023,-10847146.84505305,42097340010000
3967434.973790491,-10848401.52703378,42097340030000
3972591.382465352,-10849372.678271461,42097340040000
3960771.8849067055,-10846362.265281936,42097340060000
3967171.864899689,-10851241.73252188,42097340170000
3969694.3510715896,-10851293.496085096,42097340330000
3961214.654219964,-10846495.95999038,42097340340000
3964117.5694343597,-10848997.086309522,42097340350000
3964258.1678705537,-10849309.67143967,42097340360000
3963350.5169348633,-10848829.3278369,42097340370000
3963757.201960092,-10849118.75851296,42097340400000
3967016.0057607936,-10848428.132392079,42097340460000
3975506.784017487,-10849705.18959046,42097340470000
3975499.299461126,-10849699.73493541,42097340540000
3963483.095214244,-10848752.740027232,42097340660000
3972940.9351719166,-10849496.02026726,42097340690000
3972950.288792051,-10849495.463669805,42097340710000
3964362.583011331,-10849452.49434636,42097340780000
3963990.858729659,-10849542.77445339,42097340790000
3963994.4637568425,-10849534.425491583,42097340810000
3964124.646047892,-10849455.945250574,42097340820000
3964128.785201215,-10849447.596288763,42097340830000
3973459.805307003,-10848891.55543225,42097340840000
3973469.025718857,-10848889.99695938,42097340850000
3973450.584902524,-10848892.55730767,42097340900000
3972919.8227429423,-10849459.84143275,42097340910000
3972496.2461013473,-10849287.18490253,42097340920000
3966761.5872658757,-10849112.747260457,42097340930000
3972080.969028607,-10849115.530247727,42097340970000
3972497.0478089964,-10849296.090461794,42097340980000
3972497.8495167093,-10849305.32997953,42097340990000
3973540.1166781522,-10849782.890595034,42097341010000
3973526.486422669,-10849795.24705851,42097341020000
3973533.1679184404,-10849788.901847536,42097341050000
3974681.106375355,-10849873.170702068,42097341060000
3974335.3764428673,-10850101.375658192,42097341070000
3974202.27251517,-10849627.265946904,42097341080000
3973590.762572548,-10850452.254693173,42097341090000
3973169.700172238,-10850324.459917743,42097341100000
3974183.563250935,-10849613.239691064,42097341120000
3974672.285923475,-10849870.94431225,42097341130000
3973520.3394499742,-10849801.592269486,42097341140000
3979467.0634556236,-10850334.14471344,42097341150000
3974202.27251517,-10849618.026429167,42097341160000
3974663.1981922365,-10849868.829241926,42097341170000
3974121.1547105336,-10851597.620933946,42097341190000
3982546.0234044516,-10850711.740426213,42097341210000
3984400.2685912424,-10850157.480681552,42097341220000
3973152.462464449,-10850305.53560431,42097341230000
3974747.126335559,-10850410.732523108,42097341240000
3974752.873030145,-10850403.608075695,42097341270000
3975837.5795329874,-10850210.24612019,42097341280000
3979078.4076364515,-10851484.965609262,42097341320000
3972665.0067913993,-10850962.54323897,42097341330000
3963692.847039984,-10848612.477468833,42097341350000
3963699.9233933208,-10848607.245452764,42097341370000
3963707.400299675,-10848601.679478226,42097341430000
3981841.798807532,-10851488.416513477,42097341440000
3964001.940853844,-10848169.203256493,42097341450000
3964009.017396537,-10848163.303323483,42097341460000
3978575.327062496,-10850125.309348714,42097341520000
3965219.971164056,-10847648.116720092,42097341530000
3975349.7430056036,-10850637.04504789,42097341540000
3975357.093813745,-10850631.590392841,42097341570000
3965450.8532641344,-10849457.281084463,42097341580000
3966616.551200017,-10849402.734533975,42097341590000
3967141.948329374,-10849679.92006605,42097341600000
3979053.5405279077,-10851031.45000377,42097341620000
3979796.7693873947,-10850817.271303484,42097341630000
3972830.4294055672,-10849831.203254038,42097341640000
3977160.7228907943,-10849897.772309532,42097341650000
3972838.981204576,-10849835.322075197,42097341710000
3966609.4730592743,-10849408.300508514,42097341720000
3979046.98952438,-10851037.906534238,42097341730000
3980384.139961589,-10850529.733058766,42097341740000
3979805.593763453,-10850820.054290755,42097341760000
3977620.1627866207,-10850920.57579094,42097341790000
3977628.4507853966,-10850924.6946121,42097341810000
3972601.4038977018,-10851920.447457245,42097341820000
3967149.961688822,-10849677.35971776,42097341830000
3983458.1291815974,-10851219.913901683,42097341860000
3965545.7980235624,-10849721.998833569,42097341880000
3965538.9876139853,-10849728.566683525,42097341890000
3966800.183726638,-10850837.865409281,42097341910000
3966791.235746735,-10850834.748463538,42097341920000
3973445.9078885755,-10851408.600438578,42097341930000
3973444.037083527,-10851417.728636824,42097341940000
3961510.1991616185,-10848534.553825276,42097341950000
3961519.1430513887,-10848536.334937131,42097341960000
3975887.9682084816,-10849887.196957907,42097341990000
3975899.9973678337,-10849880.406468967,42097342000000
3980025.4031310687,-10850685.580345875,42097342010000
3980024.46719421,-10850694.708544122,42097342020000
3966089.441910396,-10849249.447595153,42097342040000
3967520.4520811797,-10849467.96775558,42097342050000
3967512.839145239,-10849461.06594715,42097342100000
3967526.462297313,-10849473.311091138,42097342110000
3972690.661839408,-10851537.619728407,42097342120000
3966080.8951123175,-10849253.121138347,42097342130000
3972680.373089344,-10851552.870498644,42097342140000
3972685.317033031,-10851545.07813429,42097342160000
3961492.8453653967,-10848594.777669795,42097342180000
3961501.388769512,-10848598.451212993,42097342190000
3966072.7489512926,-10849256.794681543,42097342220000
3965508.2740520695,-10849350.637012284,42097342230000
3965499.0599994254,-10849348.85590043,42097342240000
3966062.733187417,-10849260.134266268,42097342270000
3962173.267188208,-10848053.54230556,42097342280000
3962168.4612432034,-10848045.861260695,42097342290000
3962177.672639555,-10848061.557308896,42097342300000
3964678.7717010872,-10847471.34136871,42097342310000
3965323.860861104,-10849818.624151578,42097342320000
3965323.860861104,-10849818.624151578,42097342330000
3972451.0833268748,-10849158.499571174,42097342340000
3972442.799050165,-10849159.724085571,42097342350000
3975995.028168143,-10850738.345784511,42097342360000
3972459.2339920294,-10849157.275056776,42097342370000
3976031.7843137365,-10850754.264471697,42097342380000
3979431.232236105,-10850913.451343529,42097342390000
3978588.9632911026,-10851067.183560314,42097342400000
3964819.7775562913,-10848692.182224242,42097342440000
3978583.4820600143,-10851074.641966198,42097342460000
3964825.6528376173,-10848675.48430062,42097342470000
3965830.904067429,-10848629.954628889,42097342480000
3964822.581667462,-10848683.72194294,42097342490000
3979424.8147160243,-10850919.907873996,42097342500000
3964288.878108092,-10848262.60030927,42097342510000
3977892.3330895053,-10850893.525154678,42097342520000
3977893.402533635,-10850128.648933437,42097342530000
3977884.5796225406,-10850888.515777592,42097342540000
3963819.554475689,-10847142.948870871,42097342550000
3963179.7562166937,-10846370.391604766,42097342560000
3978863.9640137698,-10850402.049602825,42097342570000
3977887.9216335234,-10850121.301847044,42097342580000
3972140.6942506116,-10849806.935605044,42097342600000
3980148.2789307977,-10850672.444645962,42097342610000
3980155.900215099,-10850667.323949385,42097342630000
3963602.590536124,-10847492.603391452,42097342640000
3963594.5796379,-10847487.705333859,42097342650000
3963715.8118251045,-10848069.794951217,42097342660000
3964299.0258567045,-10848243.11939838,42097342670000
3963708.6019457914,-10848063.561059732,42097342680000
3980096.9356732797,-10850928.034196824,42097342690000
3980089.4481340176,-10850933.377532383,42097342700000
3962203.8383851936,-10845794.981156854,42097342710000
3979522.2811875655,-10851055.717652764,42097342720000
3979528.832461466,-10851049.261122297,42097342760000
3973180.6574882623,-10851681.667149493,42097342790000
3962692.054005982,-10847127.586781142,42097342800000
3973176.2478354396,-10851666.305059765,42097342810000
3973170.1010494716,-10851683.559580838,42097342820000
3961235.3447896247,-10845221.017862326,42097342830000
3962727.69976093,-10847159.201516526,42097342840000
3962722.8935853103,-10847189.591737514,42097342850000
3963007.262416554,-10847055.89702907,42097342860000
3963000.9875358394,-10847061.908281572,42097342870000
3961855.1446412816,-10846690.212501815,42097342900000
3961846.2004914633,-10846688.431389961,42097342910000
3971946.688618659,-10850377.670634342,42097342920000
3971939.3399846284,-10850382.902650408,42097342930000
3969755.666972097,-10849039.94431348,42097342940000
3961350.1447522943,-10846078.845858378,42097342950000
3961341.2009933144,-10846077.287385508,42097342960000
3969749.7891810215,-10849033.821741486,42097342970000
3962685.7792964606,-10847134.154631097,42097342980000
3960860.650985762,-10846375.06702338,42097342990000
3965024.21239804,-10851557.54591726,42097343010000
3965029.286594286,-10851551.97994272,42097343030000
3964821.3799054464,-10851776.622675141,42097343070000
3965013.7969495743,-10851567.119393468,42097343080000
3970746.5183267826,-10850659.642904522,42097343090000
3977399.730942833,-10850481.754358234,42097343100000
3970752.9310166514,-10850653.075054564,42097343140000
3969754.9990411424,-10849033.487783013,42097343150000
3978618.775886344,-10850696.04437801,42097343170000
3978110.635430663,-10850644.392134283,42097343200000
3979671.490717383,-10850774.30198004,42097343210000
3979864.0219997866,-10850816.269428069,42097343230000
3979866.0275509204,-10850807.586507786,42097343240000
3978107.6944040842,-10850635.820533492,42097343250000
3959983.6987210023,-10844449.239832655,42097343260000
3975198.718348782,-10850313.661927136,42097343270000
3975193.9069763143,-10850321.342972,42097343300000
3974451.5095388494,-10850505.02013181,42097343310000
3974494.8091744157,-10850530.400975712,42097343320000
3971538.512494185,-10849146.922344131,42097343330000
3972131.608514567,-10849804.041298283,42097343340000
3971385.400069715,-10849559.917654974,42097343350000
3972124.393376334,-10849802.03754745,42097343360000
3971380.7238932727,-10849567.821338821,42097343370000
3974441.0855767997,-10850489.992000552,42097343380000
3962415.035501317,-10847372.600980377,42097343390000
3962406.224419307,-10847373.268897323,42097343400000
3961840.593714513,-10848016.361595634,42097343430000
3961825.50882812,-10848006.231521973,42097343440000
3961832.1835541823,-10848012.465413457,42097343450000
3961508.3302900065,-10851601.18315765,42097343460000
3961508.3302900065,-10851601.18315765,42097343470000
3961517.80814203,-10851587.2682213,42097343480000
3960805.655981253,-10846355.252154017,42097343490000
3960797.913987063,-10846350.02013795,42097343500000
3976828.151703436,-10851028.333058028,42097343510000
3976837.107473786,-10851030.11416988,42097343520000
3976846.0632510968,-10851032.006601224,42097343530000
3961219.993718263,-10846493.510961583,42097343540000
3961219.0593058825,-10846484.494082829,42097343550000
3971386.3353052316,-10851337.13332549,42097343570000
3971377.383768405,-10851337.912561925,42097343580000
3971385.533674781,-10851353.942568598,42097343630000
3959438.6069752537,-10848116.994415313,42097343640000
3959439.274309865,-10848126.233933048,42097343650000
3959822.197262931,-10847728.266753461,42097343660000
3959828.8708322137,-10847722.032861978,42097343670000
3961708.3012667075,-10848610.807676472,42097343700000
3961393.7957350095,-10848824.541098794,42097343710000
3961386.4538150663,-10848829.439156389,42097343730000
3966487.1421048157,-10850969.890325362,42097343750000
3966481.933719584,-10850962.209280496,42097343760000
3961703.495515071,-10848618.488721335,42097343770000
3966696.681397895,-10850799.79414343,42097343780000
3966688.1341502913,-10850796.454558706,42097343790000
3958517.3215414975,-10843593.081628963,42097343800000
3952678.6148020253,-10839125.385185467,42097343810000
3960444.590908882,-10845330.333602283,42097343820000
3959977.1585354796,-10844442.78330219,42097343880000
3959977.1585354796,-10844442.78330219,42097343890000
3960437.7835056786,-10845324.0997108,42097343900000
3959854.4973740513,-10844576.923288595,42097343910000
3959848.2242049123,-10844568.685646277,42097343920000
3956166.327690104,-10843608.555038184,42097343940000
3955409.2754025757,-10843525.955976017,42097343950000
3955824.086955433,-10843544.435011487,42097343980000
3955402.871223705,-10843489.220544053,42097343990000
3956172.5988623477,-10843615.456846613,42097344000000
3955845.5684347562,-10843584.398708683,42097344020000
3954960.591195474,-10843487.439432202,42097344030000
3954936.5764741884,-10843454.154904455,42097344040000
3959289.391923129,-10845275.11913485,42097344050000
3959379.881680205,-10844516.810763566,42097344070000
3959274.3103658045,-10845308.73762107,42097344080000
3959374.809964171,-10844508.68444074,42097344100000
3959280.1828282666,-10845308.292343106,42097344110000
3960608.1032689307,-10849579.955163317,42097344120000
3960398.407428552,-10850007.644646944,42097344130000
3960601.162289086,-10849574.389188778,42097344150000
3960593.687392374,-10849568.489255765,42097344160000
3960398.540906553,-10850028.01611376,42097344170000
3953457.63251201,-10841898.465020617,42097344180000
3954539.540305471,-10842937.966425646,42097344190000
3954530.7352222586,-10842935.85135532,42097344200000
3954431.2115656626,-10843153.369640332,42097344260000
3954435.080431765,-10843161.71860214,42097344270000
3953777.658575195,-10842820.74700184,42097344280000
3953768.453867043,-10842821.080960313,42097344290000
3965352.036762678,-10851285.035803799,42097344300000
3965340.419202514,-10851294.164002044,42097344310000
3965494.6532811937,-10851832.7276985,42097344380000
3953444.559522049,-10841858.835281895,42097344390000
3965497.3240193157,-10851843.080411145,42097344400000
3965505.336237383,-10851847.755829757,42097344410000
3971005.56711472,-10851856.43875004,42097344430000
3971012.247150094,-10851862.672641525,42097344440000
3971014.518363001,-10851864.676392358,42097344510000
3961639.4190175678,-10851738.328770308,42097344520000
3961643.6907730144,-10851746.343773644,42097344530000
3961648.0960224736,-10851754.247457491,42097344580000
3961635.147263699,-10851730.313766971,42097344590000
3960513.199078711,-10849769.198297666,42097344600000
3960507.726427649,-10849776.656703549,42097344610000
3960502.5207375847,-10849784.00378994,42097344640000
3971522.0788643486,-10852012.619995622,42097344650000
3971535.8403576575,-10851993.250404224,42097344660000
3971515.799353438,-10852019.41048456,42097344710000
3973630.718197677,-10850479.7506074,42097344720000
3973622.8339663665,-10850474.518591331,42097344730000
3974847.8943722877,-10850497.339086944,42097344790000
3974794.169129012,-10850464.49983716,42097344800000
3974789.224280898,-10850457.26407026,42097344810000
3968502.2957799556,-10848453.73587496,42097344820000
3968328.6538946005,-10850029.57458663,42097344830000
3968331.7259975644,-10850020.891666349,42097344840000
3968328.25318558,-10850003.859784257,42097344860000
3968337.603066378,-10850003.525825785,42097344870000
3969126.493148722,-10848492.029779794,42097344880000
3957451.5887615616,-10843751.823222836,42097344890000
3957444.115900718,-10843748.149679638,42097344930000
3969499.985828106,-10849784.449067904,42097345040000
3969505.596325325,-10849778.660454383,42097345050000
3969511.8747421163,-10849772.983160352,42097345070000
3969517.7524119937,-10849767.528505303,42097345080000
3956194.4812772362,-10843511.707081193,42097345090000
3956187.542946083,-10843507.699579526,42097345100000
3969657.214366547,-10851224.255361823,42097345120000
3969655.077005864,-10851229.26473891,42097345130000
3969646.7947369637,-10851246.407940492,42097345320000
3969650.4015307515,-10851239.283493081,42097345330000
3957329.2212730804,-10843669.55811914,42097345340000
3958621.4179120115,-10844146.450817697,42097345350000
3958619.14913497,-10844138.658453342,42097345430000
3958623.2863169666,-10844154.465821035,42097345440000
3676026.8934102734,-11431094.496031906,42097345450000
3568537.7212386657,-11280205.935638709,42097345460000
3590602.891234362,-11313273.501698343,42103347220000
3589553.517802915,-11313636.7371968,42105303810000
3561921.595550508,-11283115.159211101,42105321440000
3591158.6754944013,-11312206.838337561,42105322140000
3591108.325133934,-11313248.009534951,42105330690000
3592050.648277336,-11312151.512550637,42105332380000
3585905.2100990317,-11268269.480599418,42105332390000
3580045.9973015585,-11269127.085956492,42105332400000
3580381.8478296474,-11269139.66505895,42105341310000
3561632.5963956206,-11282373.103485473,42105349580000
3626734.0311196726,-11265662.489444532,42105350000000
3634034.783708231,-11308344.052007034,42105361220000
3603166.753947614,-11323365.61541417,42105375070000
3608065.351327503,-11326838.226929465,42105382960000
3602091.968847791,-11324006.259083686,42105388610000
3607070.884689702,-11324269.863637883,42105388680000
3622983.4640385844,-11318950.90704829,42105389080000
3614156.362023784,-11327073.890291475,42105389400000
3603633.438527263,-11308594.186902849,42105389450000
3611036.134049379,-11307154.7145674,42105392080000
3605699.3949297597,-11306842.352076234,42105392250000
3612919.068493884,-11326453.395449795,42105392260000
3616648.049862296,-11327366.437913282,42105392920000
3615008.6127314987,-11326854.034297159,42105394850000
3614237.408915897,-11327199.347357599,42105395380000
3635298.3453562907,-11329864.2246477,42105395940000
3628426.1679605474,-11330151.76289242,42105400230000
3627718.519003848,-11330889.143199433,42105403790000
3612672.973011875,-11327849.898461794,42105403820000
3615502.586969305,-11324398.882927714,42105404210000
3633742.031967459,-11345657.343445523,42105404940000
3620325.995190647,-11329871.015136639,42105405030000
3618926.319987975,-11328327.79303577,42105407220000
3632224.483593857,-11348939.1533536,42105407250000
3628957.158391497,-11347511.703523157,42105407440000
3624402.9342061025,-11328942.387944441,42105409850000
3641634.8551643677,-11261121.544776093,42105409900000
3641635.8948631813,-11260819.2010391,42105411820000
3641636.8045997163,-11260516.745982613,42105412810000
3642579.8475123947,-11260192.02702797,42105414040000
3642587.645851931,-11259914.952815384,42105414060000
3642581.6671245126,-11259615.726024132,42105414070000
3640405.0826610937,-11248411.085317316,42105414080000
3643200.2208002387,-11258822.463332739,42105414090000
3628373.719284376,-11294038.829523154,42105415540000
3628373.978930743,-11294024.914586805,42105415700000
3643197.101309178,-11257170.70472835,42105417050000
3643207.7595735467,-11257132.299504025,42105417070000
3643197.101309178,-11257135.082491295,42105417630000
3713131.6328542763,-11644853.855796346,42105417640000
3745582.6102768723,-11637706.031292511,42105417650000
3755721.670172758,-11636335.799680337,
3755417.0674038148,-11636695.027677126,42109104290000
3712823.2627558745,-11645520.102948744,42109320330000
3712824.7006652835,-11645120.465976797,42109322500000
3742111.6482240953,-11655129.980630456,42109322530000
3741569.044185214,-11655676.114052286,42109322560000
3754990.2166959764,-11648280.269722965,42109322570000
3417019.8245317433,-10833736.519955656,42109322690000
3416778.63821603,-10833952.925045757,42109322700000
3411686.5507817217,-10839054.25203085,42109322770000
3416736.7598402435,-10833889.250297025,42123324610000
3416744.9312200663,-10833877.784389472,42123326670000
3416753.868672621,-10833869.101469189,42123328600000
3396269.2242043572,-10858173.708533067,42123330050000
3396276.745395405,-10858183.282009276,42123330240000
3416636.7885302743,-10830975.46262551,42123330250000
3416564.6513438965,-10830073.552111104,42123331210000
3396284.5215466237,-10858192.966804974,42123331220000
3415648.4799969387,-10835296.885258105,42123331230000
3415655.5016894885,-10835306.792692786,42123331240000
3415641.3306411435,-10835286.977823423,42123331390000
3391488.787908905,-10863024.344024895,42123332860000
3391499.747001539,-10863018.44409188,42123332870000
3417288.3394855927,-10833157.65860353,42123332880000
3417297.1496278187,-10833148.975683248,42123332890000
3392600.6727939937,-10861565.72473703,42123332920000
3392611.2504901118,-10861559.824804017,42123333780000
3417306.0874593505,-10833140.62672144,42123333810000
3399406.573418378,-10854814.197620416,42123333960000
3420479.022313796,-10829174.869861929,42123333990000
3420491.41062407,-10829174.869861929,42123334100000
3416948.578982648,-10833680.526251785,42123334290000
3416957.388895018,-10833672.177289976,42123335220000
3399161.1221513883,-10855033.163058806,42123335230000
3399152.3242434324,-10855041.512020618,42123336450000
3392423.911834685,-10861589.547108058,42123336460000
3392411.550126464,-10861589.881066531,42123337860000
3417049.318770982,-10833327.086868517,42123337880000
3417040.7641579206,-10833336.103747273,42123338680000
3417032.3372311415,-10833345.009306535,42123338700000
3417024.165670989,-10833354.026185289,42123340770000
3417015.611074447,-10833362.709105572,42123340780000
3424187.4853215804,-10824430.54448381,42123340790000
3424188.2518269923,-10824442.566988816,42123340800000
3424188.8905815366,-10824454.923452295,42123340810000
3396527.36924987,-10858007.953811277,42123341520000
3396539.479883207,-10858005.170824004,42123341530000
3398803.0903288955,-10855186.227358649,42123341540000
3398792.5076285526,-10855192.795208605,42123341830000
3398782.179941288,-10855199.585697545,42123341840000
3391679.5538882953,-10862886.753134271,42123342240000
3391690.1308408203,-10862880.519242788,42123342250000
3396667.980767194,-10857969.548586952,42123342260000
3396678.306785852,-10857967.322197136,42123342330000
3396688.6328126537,-10857965.207126811,42123342340000
3396698.83136564,-10857963.203375977,42123343030000
3392432.4503409886,-10861724.021052936,42123343040000
3395385.8330130093,-10857849.657495368,42123343050000
3395392.971288783,-10857857.11590125,42123343080000
3395400.3645070833,-10857864.574307134,42123343310000
3395339.306846611,-10857804.684421087,42123343420000
3395346.7000346053,-10857812.14282697,42123343430000
3392294.050760539,-10861666.80283467,42123343440000
3392284.1105154515,-10861672.368809208,42123343450000
3392274.1702779066,-10861677.600825276,42123343460000
3392223.067380852,-10861658.231233878,42123343490000
3392264.3574867016,-10861683.166799815,42123343500000
3395380.224370487,-10857835.408600546,42123343510000
3397233.884097407,-10857410.83606266,42123343520000
3397242.6807153765,-10857403.71161525,42123343530000
3397251.604826609,-10857396.92112631,42123343610000
3397260.40145649,-10857390.130637374,42123343700000
3392880.0287908656,-10861264.828153415,42123343710000
3392890.096932992,-10861260.598012766,42123343720000
3392900.165082852,-10861255.81127466,42123343730000
3392870.215545862,-10861269.503572028,42123344570000
3392910.6155757057,-10861251.135856047,42123344580000
3415355.104297988,-10830994.275619453,42123344590000
3415347.6997748725,-10831002.06798381,42123344600000
3398538.6528885253,-10855383.708135314,42123344630000
3398529.217900214,-10855389.830707308,42123344730000
3398519.7829187126,-10855395.841959812,42123344740000
3398510.4754436244,-10855401.853212314,42123344810000
3403097.313361517,-10848341.637147732,42123344820000
3403106.8791912817,-10848347.425761255,42123344830000
3403187.3599830084,-10848602.903992625,42123344840000
3403196.1606067787,-10848608.803925637,42123345060000
3403206.4917813805,-10848614.92649763,42123345070000
3403116.4450280517,-10848352.991735794,42123345080000
3397000.7121332837,-10857605.86781053,42123345090000
3396993.572980683,-10857597.18489025,42123345100000
3397018.177576593,-10857618.66955197,42123345110000
3396997.270041366,-10857592.398152143,42123345250000
3397004.0267411717,-10857601.303711409,42123345260000
3397011.1658994723,-10857609.98663169,42123345270000
3391844.5808068616,-10861861.055346103,42123345280000
3391885.8697200227,-10861885.768273061,42123345290000
3391864.0783329755,-10861850.257355496,42123345300000
3391874.018259415,-10861844.691380957,42123345630000
3391915.689571555,-10861869.738266386,42123345640000
3392967.8385441247,-10860719.028690055,42123345650000
3392979.053765449,-10860718.806051074,42123345660000
3392990.2689963775,-10860718.694731584,42123345670000
3415636.0962938503,-10829794.474147683,42123346460000
3415636.2239608336,-10829805.717416253,42123346470000
3415636.479294803,-10829816.849365333,42123346480000
3415668.013078314,-10829857.592298964,42123346550000
3415668.013078314,-10829868.724248042,42123346560000
3415668.3960802034,-10829880.190155594,42123346570000
3394872.779633942,-10858647.818244355,42123346580000
3394879.4077730165,-10858656.83512311,42123346590000
3394885.27112961,-10858665.852001864,42123346600000
3394892.66406123,-10858674.868880618,42123346610000
3394931.030894093,-10858714.053341378,42123346620000
3394905.9203628646,-10858692.791318636,42123346630000
3393001.484236904,-10860718.472092602,42123346640000
3403420.769836929,-10848686.616249701,42123346650000
3403429.953260693,-10848692.961460676,42123346660000
3403439.2642385974,-10848699.306671651,42123347210000
3403448.4476753594,-10848705.540563136,42123347360000
3393301.4954849384,-10860458.095803635,42123347370000
3393323.289263013,-10860461.101429887,42123347380000
3393311.9462979715,-10860460.767471414,42123347390000
3393278.4272564254,-10860460.21087396,42123347620000
3393289.642743667,-10860460.433512943,42123347630000
3395511.263282587,-10858350.595203938,42123347640000
3395503.3601203724,-10858344.806590416,42123347730000
3395496.0943141547,-10858336.123670133,42123347740000
3395241.793637009,-10857936.486698188,42123347790000
3395251.7361270916,-10857943.054548144,42123347800000
3395262.8258364713,-10857944.167743051,42123347810000
3227453.308976027,-10969546.632681921,42123348090000
3226110.2553699315,-10968822.27675533,42123348100000
3191064.972574319,-10995559.32601253,42123348110000
3189204.7734768693,-10995275.906588972,42131318790000
3189499.3908085427,-10994188.09252494,42131339870000
3189552.7414453193,-10994914.118243894,42131377500000
3189131.590854085,-10994568.248585999,42131383130000
3178239.486554093,-10993995.509805866,42131384370000
3177603.7043866785,-10995640.81187979,42131384910000
3205581.089605546,-10997349.120785505,42131385190000
3177874.9963030326,-10997725.60330337,42131389860000
3176821.339809993,-10996009.279394317,42131389870000
3226092.2565787495,-10970192.174409032,42131390150000
3204006.3169793882,-10994768.846308408,42131390270000
3210606.4635158353,-10993066.659974689,42131390550000
3204239.675057306,-10996020.188704414,42131390810000
3189720.9542151433,-10993949.200897697,42131391190000
3190213.553255065,-10994697.156556336,42131391420000
3189704.0073133623,-10994787.881941333,42131391570000
3190522.8802954056,-10994515.817105835,42131395020000
3723586.9865218513,-11436578.205467874,42131395030000
3759657.93008911,-11409767.57402726,42131395040000
3721234.6728814947,-11436406.105535107,42131395050000
3721220.4146531806,-11436813.53487141,42135052180000
3721552.6749656536,-11436259.720404716,42135309170000
3723098.3281724574,-11437060.775460463,42135384700000
3721064.621707855,-11437045.079412261,42135385180000
3722946.3051419375,-11437346.087315366,42135386380000
3510321.4932804755,-11152668.419551255,42135388190000
3514484.0890052766,-11152772.614594636,42135394050000
3533342.7551343967,-11191894.402480554,42135394060000
3500394.817095229,-11204817.259527763,42137309280000
3832188.7835617648,-10803422.441500794,42137309300000
3827145.335291821,-10800809.216454422,42137315280000
3832798.8839809755,-10800836.378410175,42137315780000
3833117.7435801164,-10806043.013633559,42139304770000
3827155.760792765,-10800743.871913325,42139304780000
3827164.998586058,-10800742.647398928,42139304830000
3827126.067934417,-10800802.648604464,42139305020000
3832180.994124999,-10803426.782960935,42139305110000
3832172.9406449054,-10803430.790462602,42139305120000
3832164.8871702827,-10803435.131922744,42139305130000
3829685.0730559328,-10807198.955225956,42139305270000
3831745.0578674776,-10807381.853149328,42139305280000
3831740.701226182,-10807389.645513685,42139305290000
3831749.4145103707,-10807373.838145992,42139305340000
3829308.3609034074,-10807509.091327306,42139305430000
3829313.772591105,-10807508.646049343,42139305440000
3829319.3162737424,-10807508.534729851,42139305450000
3825910.9678823664,-10803926.162196634,42139305570000
3825911.3637461527,-10803935.067755897,42139305580000
3825911.3637461527,-10803944.084634652,42139305590000
3825911.759609956,-10803953.324152388,42139305610000
3825912.1554737687,-10803962.341031142,42139305620000
3797099.800378914,-10912568.975833783,42139305630000
3823041.565898211,-10914710.0949197,42139305640000
3795252.5650731334,-10913517.529214831,42139305650000
3817943.1859204746,-10915230.84749763,42143300720000
3822831.5467637284,-10916130.754261205,42143305340000
3803372.1857393323,-10913477.454198146,42143310450000
3801023.4573687334,-10914719.334437437,42143310700000
3800833.840921885,-10919234.786942486,42143310980000
3797976.1326229367,-10916979.120100541,42143311010000
3790277.084778425,-10910042.35735125,42143311020000
3787328.643931131,-10906158.53163696,42143311030000
3819106.6981740515,-10915092.366051083,42143311040000
3787913.3019947903,-10910926.345427638,42143311050000
3785485.02056095,-10906201.50096041,42143311110000
3792979.122650559,-10910045.696935972,42143311150000
3795800.4931504973,-10913023.604634184,42143311170000
3786441.7806889666,-10902109.73043732,42143311310000
3794481.7176674465,-10910910.204101473,42143311320000
3793917.2683047685,-10911943.471615015,42143311390000
3787949.868734502,-10910106.14341947,42143311440000
3793812.5144878407,-10915944.628072599,42143311480000
3794094.00955097,-10912814.991908437,42143311490000
3793907.793047399,-10911945.25272687,42143311540000
3785654.4042785014,-10909503.237057336,42143311550000
3813109.6893594274,-10925625.082311472,42143311570000
3810757.3293546992,-10926277.525847012,42143311820000
3813385.312812251,-10913057.11180091,42143312080000
3800575.361684806,-10919629.525856838,42143312220000
3814650.0198537945,-10920242.005695181,42143312230000
3813107.4485444883,-10925616.622030172,42143312240000
3813104.5486669573,-10925607.93910989,42143312260000
3813102.439665557,-10925599.256189607,42143312270000
3797912.67963969,-10911319.859827593,42143312280000
3813148.0469040787,-10921890.64735383,42143312290000
3792666.9939951915,-10909428.096401049,42143312320000
3793563.0040668943,-10909965.21294413,42143312400000
3811568.240089306,-10920268.611053482,42143312520000
3802631.7629485046,-10913171.436917957,42143312620000
3820837.4733076287,-10924911.635694979,42143312640000
3820425.4302305775,-10924983.770725012,42143312700000
3820603.8837542203,-10924952.267309118,42143312810000
3815991.1990011935,-10912728.3853446,42143312860000
3819655.723468567,-10922741.016944,42143312870000
3820080.401299837,-10922486.429268556,42143312900000
3819485.460931846,-10925371.941789407,42143313070000
3818960.049537216,-10925805.085928086,42143313090000
3828312.652353672,-10916936.150777094,42143313270000
3827912.6238253186,-10917321.42753473,42143313290000
3818967.698432219,-10925800.521828962,42143313310000
3803203.341067147,-10919096.305495938,42143313350000
3818402.880326485,-10926329.28941023,42143313380000
3820709.00508027,-10922274.031680122,42143313490000
3809162.554252467,-10923002.840386346,42143313600000
3809144.238375809,-10923002.840386346,42143313610000
3866914.0375380293,-11426006.750024691,42143313710000
3866440.538852017,-11425587.854780836,42143313770000
3887119.7012234237,-11459115.83825439,42143313790000
3850899.392628107,-11471535.531203214,42165319550000
3435731.2025932074,-10597250.17295086,42165319720000
3435912.5157844718,-10589140.659366062,42165334710000
3435698.597175498,-10588473.187699264,42165358030000
3900552.351525907,-11282523.050839571,42167313500000
3922269.942502149,-11275933.938860025,42167313670000
3911275.9055206254,-11281331.26437114,42167314160000
3910759.4103382602,-11281288.962964637,42169312790000
3911569.783669779,-11281341.283125311,42169325240000
3907132.4926562086,-11277702.026332296,42169326610000
3919316.6935555283,-11270652.38561934,42169327780000
3905545.630151958,-11278132.164844723,42169328250000
3901039.7112772656,-11281949.310184024,42169330730000
3907381.887749017,-11276208.118765851,42169331200000
3906503.6473663505,-11277743.882460836,42169331290000
3906944.885152228,-11277847.854865236,42169333310000
3905916.4190665795,-11278052.126130842,42169333500000
3907005.073350431,-11276743.454197075,42169333830000
3905327.3604159122,-11276205.22445909,42169334450000
3903376.664318211,-11277562.543010334,42169334460000
3940982.3076307625,-11294512.048678517,42169335030000
3903579.4896682976,-11275450.812269984,42169335060000
3903374.5391203365,-11277499.202220071,42169335100000
3905277.1443401217,-11276543.41307212,42169335550000
3912802.663865523,-11299219.527305184,42169335860000
3907463.8690780955,-11277257.52760556,42169336100000
3753658.3402315658,-11311065.368278967,42169336130000
3728259.344425301,-11279090.069062999,42169336590000
3764553.644726854,-11294205.474800872,42169336900000
3765600.378507043,-11293836.3393694,42173303680000
3756785.347785007,-11289780.413722347,42173309000000
3745523.496631993,-11298021.284306282,42173309330000
3762420.8109433954,-11321515.485477187,
3733633.7677904926,-11290181.275208697,42173311140000
3738062.687309125,-11306672.923811246,
3746339.5788567583,-11308261.341625376,42173311560000
3741658.9305417803,-11284821.464365982,42173314210000
3733818.268308909,-11286283.979836024,42173330560000
3361391.7873651064,-10846677.967357827,42173330740000
3331304.7622342976,-10860050.889106315,42173330770000
3396452.6660119737,-10860142.727686219,42173330780000
3396629.7363246176,-10859782.27517503,42173330790000
3395183.7959286817,-10860610.826145004,42173330830000
3397669.387531043,-10858387.998552844,
3394866.5338905803,-10861795.376846535,42175313800000
3397483.1238963413,-10858211.445840444,42175314460000
3411133.5490786475,-10847093.077738997,42177004600000
3395919.4298560503,-10860535.351530246,42177004610000
3401615.0769816386,-10870398.03577555,42177004640000
3397325.0377443703,-10858858.323401446,42177005680000
3397549.0361867477,-10857905.317240763,42177005690000
3415390.9779954203,-10848344.754093474,42177200140000
3411263.7250752,-10849853.91243016,42177300910000
3394388.042327118,-10862601.66391835,42177318460000
3415405.4041008856,-10843029.693686059,42177318700000
3416051.658946669,-10843441.464482503,42177319600000
3415776.403062041,-10843803.809425035,42177319800000
3415496.4293648056,-10841751.189334298,42177320170000
3416611.253197377,-10843097.15329748,42177320320000
3414324.25643731,-10843242.536552455,42177320470000
3415735.2939161183,-10843962.105740944,42177320770000
3414326.4265576717,-10844233.61397899,42177320780000
3413948.448102114,-10844074.09314868,42177320790000
3413518.1455477932,-10844154.465821035,42177320820000
3414175.2849209914,-10843592.30239253,42177320830000
3417643.5589301563,-10845329.665685339,42177320850000
3416265.2543715336,-10843329.365755275,42177320870000
3417843.9008418336,-10844993.480823142,42177320890000
3417903.403877147,-10844331.575130887,42177320900000
3413865.0926266043,-10843696.163477438,42177320920000
3414342.0003732312,-10843471.966022981,42177320930000
3417295.6174287396,-10846004.373119038,42177320950000
3413842.2433627103,-10844263.558922011,42177320960000
3416629.7663087356,-10846324.527974559,42177320990000
3416045.5307375123,-10846420.930653585,42177321020000
3415417.149260491,-10846591.694752464,42177321030000
3414187.6672357777,-10845516.57111038,42177321040000
3414145.158925902,-10846018.065416405,42177321050000
3413918.3226313717,-10847054.3385562,42177321060000
3412592.615570898,-10847988.9770009,42177321080000
3413121.554735401,-10847496.165615158,42177321090000
3414322.852241971,-10849024.025626296,42177321100000
3407449.85164639,-10858400.911613777,42177321110000
3413989.5516109522,-10849334.161727645,42177321130000
3413721.1046383707,-10849514.165344259,42177321150000
3412157.6353504434,-10845537.165216178,42177321170000
3412804.23971705,-10845025.09555853,42177321180000
3416021.017929708,-10848224.195084946,42177321210000
3415109.991286113,-10848552.698902277,42177321220000
3413207.585962733,-10850009.64839778,42177321230000
3411213.1860045884,-10846348.906943042,42177321240000
3410743.5393610136,-10846687.540834036,42177321290000
3410759.8746125624,-10847448.74351208,42177321300000
3410211.3786832565,-10847713.795219658,42177321380000
3407953.829483758,-10858065.060710054,42177321390000
3408598.3115231893,-10857757.48495699,42177321400000
3411704.9292700286,-10845834.276937105,42177321410000
3414050.5688600237,-10846473.250814257,42177321420000
3417260.1215339494,-10850548.76869169,42177321430000
3418459.2468678136,-10850547.210218819,42177321440000
3412312.582626465,-10845330.890199738,42177321470000
3413315.9554829923,-10844108.82482981,42177321490000
3434666.2625436764,-10829165.29638572,42177321520000
3418920.615851208,-10835963.466368975,42177321560000
3418607.3735165363,-10836396.38786867,42177321570000
3418090.980675975,-10836625.817339195,42177321580000
3418626.7833402283,-10843991.939364476,42177321590000
3419077.175994887,-10850430.324753487,42177321600000
3413833.818504567,-10843732.230992457,42177321650000
3434152.5551766357,-10829395.727731662,42177321660000
3435260.158170552,-10828904.47481879,42177321710000
3417205.601049454,-10842621.151154848,42177321720000
3420814.404855548,-10836735.133079154,42177321740000
3420565.4853027384,-10837206.571122663,42177321750000
3418034.15828345,-10841746.402596194,42177321760000
3421226.3011839404,-10836103.951566355,42177321820000
3414316.086575656,-10843290.73789197,42177321830000
3408976.645344679,-10857553.436330365,42177321880000
3413842.3710121186,-10843737.796966996,42177321900000
3417854.2436245815,-10841935.757050034,42177321910000
3417659.902832967,-10842118.87761239,42177321920000
3416605.2524014106,-10841306.579288071,42177321930000
3418259.4062581663,-10848726.023349442,42177321940000
3418127.6280584326,-10848286.867958263,42177321960000
3412177.5460999366,-10845955.503862578,42177321970000
3408870.353486876,-10856780.65642528,42177321990000
3419838.9330925317,-10842671.91284265,42177322000000
3419175.633623939,-10843551.225500425,42177322010000
3419392.6006001295,-10843069.32342478,42177322190000
3420087.200194136,-10842455.507752547,42177322200000
3420406.48069244,-10842146.262207124,42177322210000
3413281.2362924316,-10847133.375394663,42177322240000
3412886.056728137,-10847827.118461287,42177322250000
3418568.2985645025,-10835933.07614799,42177322260000
3418105.1543900575,-10836550.454043929,42177322270000
3418176.15088381,-10836148.368043182,42177322280000
3416842.4774626023,-10834024.058200374,42177322290000
3421116.588608712,-10836487.447212137,42177322310000
3413079.9433959406,-10844204.22563342,42177322320000
3413932.619456263,-10846331.76374146,42177322330000
3419658.8657815317,-10834815.651099406,42177322340000
3416355.5195997395,-10851658.178736936,42177322350000
3416676.879103923,-10851364.629239714,42177322360000
3412404.352103836,-10842310.681095025,42177322380000
3413447.429726567,-10849825.859918479,42177322390000
3412166.442024354,-10842421.777946837,42177322450000
3412695.1086216243,-10842016.241041876,42177322480000
3412977.7026014533,-10841705.10306511,42177322500000
3415705.80265222,-10843974.796162894,42177322510000
3416650.194600087,-10850712.074384686,42177322520000
3435794.7514273184,-10829097.057537863,42177322530000
3435028.094531636,-10829200.250705829,42177322540000
3398579.707916878,-10871210.556738848,42177322550000
3395814.0089755123,-10869313.672615731,42177322560000
3434449.2960489406,-10829286.745950175,42177322580000
3435798.8431134275,-10829098.170732772,42177322630000
3436303.2811856125,-10828856.941396223,42177322710000
3436850.321388519,-10828788.925187347,42177322790000
3437891.398330939,-10828647.883392513,42177322840000
3437283.5711077647,-10828745.62190543,42177322870000
3436313.8944154666,-10828844.584932745,42177322930000
3437291.116021624,-10828796.16095425,42177322970000
3419544.058207969,-10842928.281629946,42177322980000
3396493.587016102,-10869339.944015557,42177323000000
3414530.5471415496,-10848758.306001771,42177323030000
3408512.4382910863,-10857482.971092695,42177323050000
3413009.102310696,-10850208.019730372,42177323060000
3416228.9952480467,-10852164.459781066,42177323080000
3409346.6957817515,-10856682.027356438,42177323100000
3418580.4296645103,-10835922.723435344,42177323120000
3415275.442063317,-10846619.079347197,42177323130000
3409727.475877197,-10856536.755420953,42177323180000
3420620.275293268,-10837215.254042944,42177323190000
3413159.9751391634,-10841449.513514249,42177323200000
3413242.5602441896,-10841249.472389294,42177323210000
3413460.5772238616,-10841004.569509549,42177323220000
3413668.003086763,-10840785.604071157,42177323240000
3407761.5500737806,-10858264.09995959,42177323260000
3411106.493054228,-10846418.70426377,42177323270000
3410582.8679379537,-10846864.316185415,42177323290000
3410574.4451856217,-10847460.543378104,42177323300000
3418243.4446804216,-10836478.764291856,42177323310000
3415905.4764098786,-10846496.07130987,42177323320000
3416483.832634421,-10845836.50332692,42177323370000
3408143.304666004,-10857941.38475578,42177323390000
3419030.054513753,-10850714.523413481,42177323400000
3419207.431383083,-10843331.4808256,42177323410000
3417669.734721883,-10850312.8826907,42177323430000
3417021.4843789306,-10850659.754224012,42177323450000
3418253.404702637,-10836465.739911433,42177323470000
3416897.379464934,-10842792.47185118,42177323500000
3412449.5350879994,-10842032.04840957,42177323510000
3419732.424892688,-10846691.882294176,42177323530000
3420026.282364968,-10846546.053761238,42177323540000
3420512.9944093204,-10846268.311631707,42177323550000
3420351.4361756695,-10846445.643580541,42177323560000
3412783.0516200396,-10841929.745797532,42177323580000
3407242.9073952707,-10859592.8094017,42177323590000
3407008.918895398,-10859744.20390918,42177323600000
3406834.2595481644,-10859887.249454848,42177323610000
3413335.485068323,-10841133.477479886,42177323620000
3413665.833076035,-10840975.51512245,42177323630000
3418396.038164386,-10836009.21867969,42177323650000
3418605.330378882,-10835832.999925766,42177323670000
3419484.0368540627,-10850557.451611973,42177323680000
3420965.2404163145,-10844796.334004948,42177323690000
3419768.9491891535,-10846732.736547299,42177323700000
3420551.0534788202,-10845577.017593881,42177323710000
3420758.3368752957,-10845280.907748371,42177323720000
3420921.6882247133,-10845109.47573255,42177323730000
3420512.1004056707,-10846252.392944524,42177323740000
3422351.5790296113,-10831711.061820671,42177323800000
3420285.15318026,-10842421.777946837,42177323810000
3420514.7824168056,-10845590.264613286,42177323820000
3420547.7328844317,-10845578.13078879,42177323830000
3396898.0871890644,-10868732.362234809,42177323840000
3397031.8184864884,-10869402.171610912,42177323850000
3422620.0762786577,-10830744.252043132,42177323870000
3417931.623222859,-10845360.278545307,42177323880000
3417603.465380464,-10845610.190802138,42177323950000
3396882.279194649,-10868729.245289067,42177323960000
3408720.933863887,-10857129.309070444,42177324000000
3407571.3149049124,-10865802.989834582,42177324010000
3416567.84324635,-10846322.301584745,42177324020000
3412041.6175494767,-10842696.180491643,42177324030000
3411958.401896762,-10842766.868368296,42177324040000
3418113.198937347,-10852666.510684542,42177324060000
3407541.076572074,-10845242.725163031,42177324070000
3433770.675902151,-10827079.725725709,42177324100000
3422340.9772063205,-10831726.535229892,42177324110000
3406866.0272176033,-10845986.45068102,42177324120000
3407395.882514982,-10845477.16401064,42177324130000
3422614.2004469964,-10830761.840522677,42177324140000
3433643.2148506194,-10827236.240929764,42177324150000
3407058.0382708586,-10845883.146193564,42177324160000
3407387.716992075,-10845492.637419859,42177324190000
3407056.2521085124,-10845900.512034126,42177324210000
3406907.108414783,-10846179.701317037,42177324220000
3406832.9837397626,-10846385.976333477,42177324230000
3403170.2689334853,-10858474.159838717,42177324250000
3422330.2476590164,-10831738.89169337,42177324270000
3422351.5790296113,-10831782.194975289,42177324280000
3403651.5053151827,-10859065.488973811,42177324290000
3403887.8571579936,-10859034.987433335,42177324300000
3422571.5368793164,-10830761.840522677,42177324310000
3422607.0472642044,-10830746.367113458,42177324320000
3421912.8240462416,-10844233.168701025,42177324330000
3421929.428768879,-10844238.512036584,42177324370000
3418573.6617862703,-10841695.41826941,42177324400000
3415924.2438577516,-10848257.034334728,42177324410000
3415940.968612995,-10848251.579679681,42177324420000
3415957.693389708,-10848246.458983105,42177324430000
3403878.4183084243,-10859042.445839219,42177324440000
3403642.449285371,-10859073.83793562,42177324450000
3404027.782525099,-10858941.033783106,42177324470000
3404039.262339148,-10858922.666067123,42177324480000
3413871.219810323,-10840630.981298447,42177324490000
3433643.0870066625,-10827219.097728182,42177324500000
3418573.6617862703,-10841404.095162004,42177324510000
3413887.1760314507,-10840624.52476798,42177324520000
3418590.645336439,-10841399.753701864,42177324530000
3417359.5868935105,-10837162.154645836,42177324540000
3420526.65990133,-10846242.819468316,42177324550000
3420541.2194132847,-10846232.912033636,42177324570000
3417364.18351386,-10837179.186527928,42177324600000
3414341.745064631,-10840352.682571463,42177324620000
3414377.2330082594,-10840352.682571463,42177324640000
3414377.2330082594,-10840352.682571463,42177324660000
3414589.9073861283,-10839919.761071768,42177324680000
3414625.396005589,-10839888.814253327,42177324690000
3407121.319608811,-10864992.472622119,42177324710000
3421444.9627663204,-10844674.105204057,42177324730000
3421445.218214245,-10844686.350348046,42177324740000
3420946.210261875,-10845102.128646158,42177324750000
3420779.9211033266,-10845269.441840818,42177324760000
3420584.131753807,-10845565.106408367,42177324770000
3421572.5596284172,-10844420.964681992,42177324780000
3422816.79043608,-10840949.911639567,42177324820000
3422789.8378658704,-10840742.078150257,42177324830000
3422612.4121509297,-10841189.805142228,42177324840000
3422612.7953572073,-10841202.161605706,42177324850000
3423373.48207993,-10830458.71754925,42177324860000
3395301.4486907506,-10867747.518699761,42177324870000
3403282.50907034,-10859444.420520471,42177324880000
3403629.056576734,-10856036.596948817,42177324890000
3412736.974009874,-10839103.45524578,42177324900000
3412724.5930731283,-10839091.098782303,42177324910000
3412712.4674248276,-10839078.40836035,42177324950000
3423460.7307736585,-10830438.680040905,42177324960000
3403267.8412704202,-10859454.105316173,42177324980000
3423491.133823513,-10830485.990824493,42177324990000
3403641.1737887203,-10856024.017846357,42177325010000
3430807.1788186464,-10825888.607174221,42177325020000
3420939.3134342497,-10844801.566021014,42177325030000
3423578.89428636,-10829492.687008142,42177325040000
3430788.262061953,-10825851.315144803,42177325050000
3397270.0905049425,-10868494.917760948,42177325110000
3423405.4178442615,-10830471.074012725,42177325120000
3413923.0456878617,-10849414.311761016,42177325130000
3413918.960882148,-10847169.888187641,42177325150000
3418707.359957242,-10841240.455510538,42177325170000
3393862.1551448256,-10861870.183544349,42177325220000
3413128.702708921,-10847381.39522015,42177325230000
3411946.021699333,-10846154.320473136,42177325250000
3419958.723931938,-10842537.104939299,42177325300000
3418947.8158062687,-10843645.95838709,42177325330000
3414253.0256283586,-10845662.399643319,42177325340000
3414097.2893735585,-10849265.477601826,42177325360000
3423586.4312387384,-10829502.371803842,42177325390000
3418723.3221037937,-10841247.357318968,42177325400000
3413675.661951045,-10849878.068759661,42177325410000
3397260.528943924,-10868480.000949182,42177325420000
3396483.2611431773,-10869423.767592127,42177325430000
3393581.1213311153,-10869550.003894687,42177325440000
3439237.466900652,-10822836.44937565,42177325450000
3439244.629254774,-10822827.209857915,42177325460000
3403266.9484483474,-10856271.815032864,42177325470000
3407828.53494818,-10844904.425230509,42177325510000
3406717.5235954826,-10846654.701584252,42177325520000
3393540.846684471,-10869559.02077344,42177325530000
3412197.584513142,-10848335.291936757,42177325570000
3412204.3490799665,-10848318.92797161,42177325580000
3412667.0282536144,-10845358.163474983,42177325590000
3404516.7039842033,-10858641.139074909,42177325610000
3404526.7810864644,-10858628.559972448,42177325620000
3412089.479553493,-10849090.70600128,42177325630000
3412101.221725319,-10849087.366416559,42177325640000
3410487.9208629546,-10847998.550477108,42177325650000
3398698.4112236695,-10871120.83322927,42177325660000
3418212.798506004,-10834539.356123256,42177325690000
3403255.4693128536,-10856276.267812496,42177325700000
3418208.073893867,-10834549.708835902,42177325710000
3407836.3179749283,-10844895.185712773,42177325720000
3408020.3049752032,-10844576.03273267,42177325730000
3408023.112009165,-10844588.055237675,42177325750000
3431040.3173269923,-10824778.306573048,42177325800000
3413894.0691250213,-10847239.240230408,42177325810000
3431043.896240242,-10824793.779982269,42177325820000
3403065.68240095,-10856740.692728085,42177325830000
3405698.584244525,-10857342.708534295,42177325840000
3401963.620807552,-10857926.579263506,42177325850000
3403053.438178706,-10856742.473839939,42177325890000
3423611.4692813866,-10829510.943404634,42177325950000
3423593.4572152263,-10829512.501877503,42177325960000
3422382.2349528135,-10831208.231680758,42177326000000
3422376.7424279274,-10831191.422437647,42177326030000
3400452.0561520257,-10856018.229232837,42177326040000
3405687.3581113047,-10857355.510275736,42177326050000
3423333.3708710545,-10829790.466646016,42177326060000
3422472.1594110485,-10831188.528130887,42177326070000
3422465.1340403603,-10831173.054721668,42177326100000
3422670.9151069443,-10831541.07695823,42177326110000
3422670.9151069443,-10831528.609175261,42177326160000
3423333.754098578,-10829802.934428984,42177326170000
3401952.9080158505,-10857932.590516008,42177326180000
3420372.892015304,-10845650.711096788,42177326190000
3431129.7904542424,-10824994.155065695,42177326200000
3431015.7762341686,-10825088.220035417,42177326230000
3400422.21684721,-10856020.01034469,42177326240000
3400410.1026189635,-10856020.455622653,42177326280000
3413138.020608862,-10839089.31767045,42177326300000
3399963.1592009403,-10856725.775916317,42177326310000
3402189.7392809223,-10857594.958500434,42177326320000
3402199.8145887624,-10857586.275580151,42177326330000
3422827.0094346507,-10830437.121568033,42177326340000
3422827.0094346507,-10830458.71754925,42177326350000
3422827.0094346507,-10830446.36108577,42177326360000
3422827.0094346507,-10830471.074012725,42177326370000
3401792.2171938997,-10858069.068211721,42177326390000
3401604.3644755804,-10858208.217575213,42177326410000
3401607.9353099586,-10858220.57403869,42177326420000
3401423.783551868,-10858325.770957492,42177326430000
3401434.368381822,-10858335.010475228,42177326440000
3420768.9374088496,-10845275.00781536,42177326460000
3439506.057890649,-10822293.989497015,42177326480000
3439737.178500872,-10821927.859691795,42177326500000
3439506.057890649,-10822263.042678572,42177326510000
3439725.667138797,-10821923.518231655,42177326520000
3423333.754098578,-10829814.95693399,42177326530000
3407844.48377847,-10844885.834875546,42177326560000
3404022.170175236,-10855864.830974523,42177326580000
3404033.0122169163,-10855858.040485585,42177326590000
3408741.349766116,-10857643.382478928,42177326600000
3430997.753898678,-10825010.296391862,42177326610000
3424906.487260899,-10829045.627933117,42177326630000
3431036.7384147313,-10825031.892373076,42177326650000
3422641.663596041,-10831508.905625392,42177326660000
3422646.1343467245,-10831479.18332135,42177326710000
3400418.1362638096,-10860022.725275142,42177326760000
3400343.410805474,-10860048.106119044,42177326880000
3413259.5368452943,-10841492.482837694,42177326910000
3421119.7816275186,-10844744.013844276,42177326920000
3421444.707318402,-10844661.637421088,42177326930000
3421113.523311398,-10844734.77432654,42177326940000
3410853.5474656983,-10856241.536131367,42177327020000
3395056.8392045423,-10860086.066065405,42177327030000
3424905.465197222,-10829086.81614471,42177327060000
3424893.07268154,-10829086.259547258,42177327070000
3405724.991209577,-10860626.299554223,42177327080000
3405711.46879568,-10860630.195736403,42177327090000
3406073.134403352,-10860619.175106812,42177327100000
3437706.3488169624,-10828677.605696555,42177327120000
3417682.6311069117,-10845656.83366878,42177327130000
3413014.080320328,-10845160.12610086,42177327140000
3412550.495372701,-10842421.110029893,42177327150000
3412535.0513341255,-10842388.49341909,42177327160000
3416640.874188183,-10843406.064884432,42177327170000
3414201.070785664,-10849323.58637602,42177327180000
3412979.234292832,-10850038.146187423,42177327190000
3413396.4992554383,-10849936.288853345,42177327200000
3404456.8793219626,-10858684.99895428,42177327210000
3436768.4812733117,-10828864.177163124,42177327220000
3411530.2070501377,-10846455.996293185,42177327230000
3411208.97442421,-10856188.54805375,42177327240000
3414805.0107527855,-10837058.85015838,42177327250000
3414796.585272198,-10837050.055918608,42177327260000
3414788.032138384,-10837041.261678835,42177327270000
3417403.765589558,-10853327.525820872,42177327290000
3417394.8276909827,-10853336.097421663,42177327320000
3415944.160362619,-10846460.337753328,42177327340000
3419140.1326030977,-10834205.620289858,42177327350000
3419137.7062778706,-10834217.642794864,42177327360000
3405923.4916513786,-10862178.649853336,42177327370000
3415939.436573454,-10846460.560392307,42177327390000
3409998.6481026253,-10848522.642639762,42177327400000
3410005.0286934506,-10848522.086042307,42177327410000
3409994.4369143895,-10848534.442505786,42177327430000
3430930.2662263876,-10831052.495713139,42177327440000
3431236.0086389426,-10831201.218552839,42177327490000
3412380.2290492915,-10849994.28630805,42177327510000
3412397.076892209,-10849920.036207689,42177327540000
3399898.8924164064,-10870756.484535903,42177327550000
3392092.5711116726,-10867472.002960049,42177327560000
3392092.5711116726,-10867472.002960049,42177327590000
3392092.5711116726,-10867472.002960049,42177327670000
3417701.401115867,-10842070.453633893,42177327710000
3417922.4295831514,-10841886.776474085,42177327720000
3403705.33142472,-10864856.440204369,42177327770000
3416975.1364177465,-10842641.856580136,42177327850000
3414709.0116602043,-10839869.66730091,42177327860000
3416986.755312634,-10842645.641442822,42177327870000
3414717.9477160955,-10839860.984380627,42177327900000
3414726.756120044,-10839852.63541882,42177327920000
3406245.1044918634,-10848336.182492685,42177327930000
3406251.8659733688,-10848312.694080126,42177327940000
3406248.293869495,-10848324.49394615,42177327960000
3426676.822188551,-10828101.861290172,42177327970000
3418447.7543534553,-10861349.430966418,42177327980000
3401620.6882978384,-10855955.890317993,42177327990000
3408419.6754196836,-10847275.530384406,42177328000000
3408396.7080980646,-10847266.624825142,42177328010000
3408407.936561364,-10847270.966285283,42177328020000
3426676.822188551,-10828089.504826693,42177328070000
3405565.2745356783,-10857528.055486467,42177328080000
3418464.9931287975,-10844155.24505747,42177328090000
3405573.4389189193,-10857518.927288221,42177328100000
3395338.2870968697,-10867104.871279411,42177328110000
3431142.188921963,-10824992.707912317,42177328120000
3431618.3246077863,-10831283.706295514,42177328130000
3426164.964138739,-10837345.386527682,42177328200000
3415066.7139989207,-10848500.156102622,42177328230000
3439515.266823346,-10822278.961365758,42177328240000
3431607.7152196676,-10831289.606228529,42177328250000
3394744.551296038,-10864488.195328824,42177328270000
3395389.9120272608,-10866826.461232938,42177328290000
3394749.7772773127,-10864498.993319431,42177328300000
3395416.1707119355,-10866846.053463316,42177328330000
3394756.5328171686,-10864509.568671057,42177328340000
3412210.7307499982,-10842958.560531441,42177328350000
3412817.1312869033,-10842159.175268056,42177328400000
3418065.3148005507,-10844712.844386853,42177328410000
3417710.594599513,-10845424.064613532,42177328420000
3417710.594599513,-10845424.064613532,42177328430000
3412804.6226347843,-10842159.509226529,42177328440000
3395410.816995254,-10866834.921514237,42177328450000
3402930.996587263,-10864649.831229456,42177328460000
3417903.0208095247,-10832867.003413068,42177328490000
3417884.2505099215,-10832883.033419743,42177328500000
3417893.444122674,-10832875.018416407,42177328510000
3407731.9492483274,-10862140.578587485,42177328520000
3395295.7126160795,-10867047.987019615,42177328530000
3395284.7503470303,-10867053.552994156,42177328540000
3414873.819048175,-10848606.243577348,42177328570000
3423334.1373261153,-10829827.313397467,42177328580000
3410493.5359933227,-10848009.348467715,42177328590000
3410499.278742791,-10848020.257777812,42177328600000
3412295.0967214247,-10849763.632323125,42177328610000
3412255.4025276867,-10849578.062731974,42177328620000
3412142.3194099804,-10849311.563871015,42177328650000
3412252.2116813483,-10849566.374185441,42177328660000
3412148.701049652,-10849301.322477862,42177328710000
3396334.2380324663,-10864850.651590846,42177328720000
3427343.698959691,-10824274.6971967,42177328750000
3427331.304118484,-10824274.6971967,42177328760000
3415243.3985774447,-10848321.710958881,42177328770000
3414868.84032815,-10848594.777669795,42177328780000
3404375.6253687376,-10861623.054274786,42177328790000
3426346.3992832997,-10827182.584935201,42177328850000
3426333.877621512,-10827182.584935201,42177328860000
3396339.2096914365,-10864861.783539927,42177328870000
3396344.563787823,-10864872.581530534,42177328880000
3404411.8515586033,-10861571.958628515,42177328890000
3401113.894135909,-10856431.447182663,42177328900000
3418553.74125942,-10843909.78558027,42177328910000
3408025.66385874,-10844600.18906217,42177328920000
3431079.429789591,-10825553.31286795,42177328930000
3434994.4680237994,-10829260.80850882,42177328940000
3431091.444752751,-10825555.427938277,42177328950000
3430955.446244894,-10825887.271340331,42177328960000
3431103.587545965,-10825557.876967074,42177328970000
3431110.2341323257,-10825452.457409294,42177328990000
3436274.894035211,-10828789.593104294,42177329010000
3431122.376943119,-10825454.572479617,42177329020000
3430967.8445460675,-10825888.49585473,42177329030000
3431098.2191517726,-10825450.342338966,42177329040000
3422612.7953572073,-10841214.295430202,42177329050000
3405557.7479993994,-10854016.48214939,42177329060000
3405561.9577564453,-10854005.016241841,42177329070000
3405566.5502202227,-10853993.88429276,42177329080000
3431223.865721833,-10831198.992163023,42177329090000
3407127.3160418244,-10863865.140138855,42177329100000
3418457.586837335,-10844164.818533678,42177329110000
3418875.1550203348,-10838413.274402862,42177329140000
3409300.3751006937,-10863114.958090398,42177329150000
3426426.129331179,-10826304.942069788,42177329200000
3416712.6287641325,-10843042.4954275,42177329230000
3418324.912778193,-10844311.092344582,42177329250000
3418317.1234866143,-10844320.665820789,42177329320000
3418309.7172792736,-10844330.239296997,42177329360000
3422696.8455406204,-10843461.056712883,42177329380000
3412766.7138338117,-10845398.57245014,42177329480000
3416718.6296095685,-10843038.04264787,42177329490000
3416007.61250745,-10843670.114716593,42177329520000
3416016.1664419617,-10843678.686317382,42177329530000
3416024.5927113043,-10843687.703196138,42177329540000
3423340.779938537,-10843139.677342962,42177329560000
3409437.0407237536,-10856864.368682357,42177329570000
3419778.7826711005,-10842681.59763835,42177329590000
3418180.3647166546,-10841534.116327252,42177329600000
3419251.999457365,-10843059.082031628,42177329610000
3419065.4275337635,-10843283.72476405,42177329620000
3418990.722893173,-10843534.193618335,42177329640000
3420333.4286232856,-10842159.175268056,42177329670000
3394164.607795856,-10866889.690703709,42177329700000
3394166.3921980048,-10866877.890837684,42177329710000
3423704.5958938003,-10842772.656981817,42177329720000
3426413.735365339,-10826304.385472333,42177329730000
3416707.649341293,-10843438.12489778,42177329740000
3407567.8700280157,-10858753.6830801,42177329750000
3428978.3882582923,-10839817.458459727,42177329810000
3434120.4651229116,-10829289.862895917,42177329820000
3415900.1142868833,-10848233.879880644,42177329870000
3415895.9011917906,-10848222.525292585,42177329880000
3436266.8382335836,-10828794.602481378,42177329890000
3407576.290839813,-10858764.926348671,42177329900000
3426930.4587737047,-10839008.833678605,42177329910000
3422963.9447902376,-10840190.93535134,42177329950000
3433991.466465052,-10829308.119292408,42177329960000
3422794.9473535633,-10835039.291956408,42177330000000
3422368.3120454038,-10830669.334025828,42177330020000
3431116.88072209,-10825477.504294721,42177330030000
3426269.864008455,-10837151.35665523,42177330060000
3417883.4843758186,-10864709.27583754,42177330090000
3401625.024316553,-10872995.67609321,42177330130000
3411719.861810851,-10843249.549680375,42177330180000
3411724.8393282588,-10843258.45523964,42177330210000
3438009.3096277607,-10828651.890894182,42177330270000
3405345.2208163566,-10867634.529416608,42177330290000
3417104.093963931,-10846193.05965593,42177330310000
3417096.68844652,-10846202.633132141,42177330340000
3426400.702548034,-10825936.36323577,42177330370000
3428212.517350657,-10837632.145535965,42177330390000
3411523.0599529236,-10861416.111341402,42177330430000
3411711.3106956375,-10843240.53280162,42177330440000
3421788.289302104,-10833512.322501197,42177330450000
3415948.37347332,-10840691.316462457,42177330460000
3435022.8523706873,-10825010.852989316,42177330470000
3435010.705908334,-10825013.07937913,42177330480000
3417180.8306939686,-10839339.118607791,42177330530000
3441828.7070086957,-10824854.44910475,42177330550000
3441836.6383451135,-10824877.603558837,42177330570000
3441832.6726762955,-10824866.026331794,42177330630000
3407232.955781532,-10862874.396670794,42177330640000
3420367.911192239,-10834763.442258224,42177330650000
3430210.802985047,-10837901.09342572,42177330660000
3430199.5556972045,-10837905.880163826,42177330700000
3433072.404141694,-10828834.677498065,42177330710000
3433060.643020525,-10828838.907638714,42177330720000
3420733.1766073387,-10839871.0031348,42177330730000
3420723.214687279,-10839864.10132637,42177330750000
3447505.973110521,-10822130.461165039,42177330900000
3447720.3428883576,-10821951.793382317,42177330910000
3408628.935100746,-10863806.697406188,42177330920000
3428852.891215927,-10840239.025371363,42177330930000
3406828.7735729166,-10856165.950197121,42177330950000
3407288.965603834,-10862683.483744085,42177330960000
3421968.897002364,-10836215.938974094,42177330970000
3424595.65584958,-10836058.199255638,42177330980000
3410537.180952693,-10847967.047061214,42177331010000
3426558.2471862813,-10839204.644662911,42177331020000
3427765.641742202,-10835521.08271256,42177331030000
3427753.246498373,-10835521.08271256,42177331040000
3426697.649590553,-10842528.533338508,42177331060000
3425963.9829536453,-10844456.809558028,42177331140000
3407065.0553395804,-10854343.204854872,42177331180000
3404122.1724067912,-10855755.515234565,42177331190000
3402174.817636749,-10855078.915369522,42177331220000
3438290.0246796734,-10825062.282594062,42177331230000
3426706.210556884,-10842519.850418225,42177331240000
3426689.0886298604,-10842537.104939299,42177331250000
3404132.1216502683,-10855748.056828681,42177331270000
3415770.0196457813,-10846522.3427097,42177331290000
3402236.417354756,-10860291.784484392,42177331300000
3426533.9701102264,-10842331.163881332,42177331310000
3414281.7476818976,-10848633.739491574,42177331320000
3414269.620584901,-10848636.18852037,42177331330000
3404734.064977876,-10858377.089242745,42177331340000
3404738.019348701,-10858365.734654685,42177331350000
3414257.6211526697,-10848638.97150764,42177331360000
3439570.77636189,-10829172.420833131,42177331370000
3439582.7991965148,-10829168.969928917,42177331380000
3393713.161863987,-10869328.92338597,42177331390000
3393724.5051764906,-10869333.264846113,42177331400000
3426527.325865737,-10842341.739232957,42177331410000
3435034.8709867406,-10825008.403960519,42177331420000
3446853.670941412,-10826844.618961154,42177331550000
3434901.2604028108,-10824799.345956808,42177331570000
3417058.51179427,-10866367.936250359,42177331580000
3405702.538907388,-10866126.59559432,42177331590000
3408847.0025704843,-10872182.821171438,42177331630000
3445846.9352244153,-10822175.656878302,42177331740000
3410195.044118589,-10847851.72006875,42177331750000
3410183.6865036506,-10847847.378608612,42177331760000
3434845.387294135,-10824685.243478745,42177331770000
3411163.668115254,-10862212.824937012,42177331810000
3414997.011059806,-10839489.622559343,42177331820000
3415006.2026348296,-10839486.839572072,42177331900000
3415015.1388945403,-10839506.097843979,42177331920000
3415024.330482351,-10839514.112847317,42177331930000
3445847.703011292,-10822187.679383308,42177331940000
3426503.9432631126,-10827890.688216137,42177331980000
3426505.348773556,-10827903.044679616,42177332010000
3442095.816625235,-10820901.38266719,42177332020000
3442095.432843095,-10820891.029954549,42177332030000
3409365.453790283,-10856673.90103361,42177332040000
3409731.814588434,-10856506.921797419,42177332050000
3409974.7847205973,-10858382.432578305,42177332100000
3415254.760601266,-10848317.146859758,42177332110000
3412249.531371026,-10868040.622919021,42177332130000
3391751.298926482,-10864792.876775125,42177332140000
3409721.0954221156,-10856513.044369414,42177332150000
3403367.072446626,-10862291.639136491,42177332190000
3424090.2672514287,-10829386.376894435,42177332210000
3424100.6150009315,-10829379.92036397,42177332260000
3424111.21825897,-10829373.352514012,42177332290000
3418711.829356305,-10848210.168829108,42177332300000
3411588.66024222,-10843365.767228765,42177332310000
3399413.3313625744,-10854824.43901357,42177332320000
3415079.990791506,-10867302.46337557,42177332340000
3411579.4710767646,-10843374.116190573,42177332410000
3414412.976358527,-10843441.575801995,42177332420000
3400819.69727743,-10866536.140000947,42177332440000
3394244.5237590354,-10866619.406980062,42177332470000
3396275.8530504783,-10865119.599480605,42177332480000
3404019.7466612677,-10861550.47396679,42177332490000
3404381.3654273357,-10868628.167191427,42177332520000
3408294.376411876,-10875137.1291376,42177332530000
3414421.146280924,-10843450.481361257,42177332540000
3423464.690830747,-10829655.992701137,42177332550000
3423464.690830747,-10829668.349164616,42177332560000
3398233.5492143873,-10856876.16854838,42177332570000
3416360.243539801,-10835248.349960119,42177332620000
3397449.5941738845,-10872872.000138938,42177332650000
3426508.543116044,-10826308.949571457,42177332660000
3426496.149071591,-10826308.726932473,42177332730000
3402061.4392045545,-10877109.933153437,42177332740000
3416369.053054217,-10835239.667039838,42177332750000
3403186.977347325,-10869114.522046704,42177332760000
3401126.9016920947,-10866826.795191409,42177332790000
3416377.990248843,-10835231.318078028,42177332810000
3430916.0785217383,-10824584.83329805,42177332820000
3400829.516484948,-10865736.198140107,42177332830000
3430896.905972528,-10824551.771409284,42177332840000
3409628.706782294,-10861706.09861492,42177332890000
3401231.3451859155,-10856455.937470635,42177332900000
3409322.4507766655,-10871324.881855894,42177332940000
3400840.6109230956,-10865730.63216557,42177332970000
3410206.4017434153,-10847856.061528893,42177332980000
3405882.9238350494,-10848433.921005601,42177333010000
3405878.7139745355,-10848445.386913152,42177333040000
3405874.1214009784,-10848456.852820702,42177333050000
3425229.4634080203,-10828880.763767252,42177333060000
3425223.458635862,-10828869.965776647,42177333070000
3421964.171026347,-10828837.237846352,42177333090000
3421964.55421353,-10828849.260351358,42177333100000
3445886.732237583,-10822628.949844811,42177333110000
3405148.770193676,-10871620.21246497,42177333120000
3396584.2255835673,-10870539.522848347,42177333130000
3405469.598549947,-10860811.423867414,42177333140000
3405457.6072091637,-10860811.646506395,42177333150000
3405445.2331775585,-10860811.646506395,42177333160000
3405162.036895937,-10861044.192922661,42177333280000
3405149.663144367,-10861044.526881134,42177333340000
3405137.28940452,-10861044.526881134,42177333350000
3408254.8219850976,-10858005.72742146,42177333440000
3407643.4023522446,-10858212.781674335,42177333450000
3408048.12015655,-10858087.10196923,42177333460000
3408059.348319941,-10858082.98314807,42177333600000
3395016.1776224505,-10860155.30678868,42177333610000
3395024.335421898,-10860164.212347941,42177333620000
3395032.493226429,-10860173.229226695,42177333630000
3428896.5977875385,-10839960.058727436,42177333640000
3428902.987649514,-10839949.817334281,42177333650000
3428889.824537276,-10839970.300120588,42177333660000
3428883.0512905465,-10839980.43019425,42177333680000
3445886.732237583,-10822640.972349819,42177333690000
3446185.277724064,-10824086.90121573,42177333700000
3446197.434673026,-10824086.678576749,42177333750000
3403796.4026458487,-10864572.575502846,42177333760000
3403807.1169488933,-10864566.675569834,42177333770000
3409362.77407313,-10856545.549660726,42177333780000
3403817.8312607245,-10864560.775636822,42177333880000
3409372.5997053906,-10856538.425213313,42177333890000
3409382.935768093,-10856531.634724375,42177333900000
3415271.229170236,-10846505.422147097,42177333920000
3415283.48486298,-10846502.86179881,42177333930000
3415295.485239964,-10846501.080686957,42177333940000
3416576.397548784,-10846220.88952863,42177333950000
3416572.5672634155,-10846209.75757955,42177333960000
3408720.933863887,-10857129.309070444,42177333970000
3401236.446232624,-10858569.78328131,42177334060000
3401225.606510746,-10858575.683214322,42177334070000
3426627.884314011,-10827547.712865004,42177334080000
3426588.401933392,-10827533.46397018,42177334090000
3426579.5854958515,-10827535.022443052,42177334100000
3426570.641289969,-10827543.371404864,42177334180000
3404216.690525744,-10864515.357284578,42177334190000
3404228.935838155,-10864509.457351565,42177334200000
3404239.778051433,-10864504.33665499,42177334210000
3420448.7540176907,-10834692.643062077,42177334220000
3420457.5662991647,-10834684.294100268,42177334230000
3420466.506300965,-10834675.94513846,42177334240000
3401947.806689554,-10857760.379263751,42177334250000
3401937.0939108166,-10857766.501835745,42177334260000
3447735.9568259944,-10821951.01414588,42177334270000
3404742.228841541,-10858354.268747132,42177334290000
3447775.1197361615,-10821981.627005849,42177334300000
3415135.1406901414,-10839262.419478634,42177334310000
3423363.901365923,-10843131.773659118,42177334320000
3423366.96719364,-10843134.334007405,42177334330000
3415117.9063217416,-10839279.673999706,42177334390000
3415126.459672099,-10839270.991079425,42177334400000
3425642.521734975,-10844474.731996048,42177334410000
3425630.7673419034,-10844478.739497716,42177334420000
3426562.8470584345,-10836430.22899387,42177334440000
3426567.0636093398,-10836418.429127846,42177334450000
3425619.3962543774,-10844482.746999383,42177334460000
3426571.4079359462,-10836407.074539786,42177334470000
3403536.966132875,-10856077.117243465,42177334500000
3403525.2316631046,-10856080.790786663,42177334510000
3403548.573064428,-10856073.44370027,42177334520000
3403333.910273054,-10856140.235394746,42177334530000
3403345.644571003,-10856136.45053206,42177334540000
3426491.5492230477,-10826587.025659457,42177334550000
3426492.3158643586,-10826605.170736456,42177334600000
3410391.8259383403,-10845117.82469436,42177334610000
3410399.610494193,-10845108.585176622,42177334620000
3410407.395054695,-10845099.011700414,42177334630000
3395977.813248277,-10859115.360105688,42177334640000
3393893.508951017,-10861959.907053927,42177334680000
3405011.766768084,-10861237.777517151,42177334690000
3405001.17903989,-10861244.34536711,42177334750000
3404990.591320283,-10861250.467939103,42177334760000
3407491.445029938,-10873339.764639253,42177334770000
3438252.8088037185,-10824829.736177795,42177334790000
3438252.5530248713,-10824817.268394826,42177334800000
3434857.2778897723,-10824682.460491475,42177334810000
3408596.907944274,-10847327.182628132,42177334820000
3434832.985286645,-10824694.149038007,42177334830000
3434821.478279995,-10824690.586814305,42177334840000
3427127.877074277,-10828565.395649835,42177334850000
3427127.877074277,-10828553.37314483,42177334860000
3427127.877074277,-10828537.565777136,42177334890000
3395968.2526312843,-10859122.81851157,42177334900000
3400435.4787520547,-10861540.121254146,42177334910000
3395239.7541527958,-10866961.157816797,42177334920000
3395228.536995312,-10866965.72191592,42177334930000
3418166.7016878454,-10848541.566953197,42177334940000
3418154.9540483756,-10848545.351815885,42177334950000
3418143.334111061,-10848549.359317554,42177334960000
3405764.2828312903,-10848736.376062086,42177334970000
3405760.0730090234,-10848747.508011164,42177335070000
3417210.5806626882,-10837251.210238472,42177335080000
3417213.7727234554,-10837262.898785004,42177335170000
3417382.9530637898,-10837392.474672288,42177335180000
3409988.056328741,-10849070.334534464,42177335190000
3409978.8682908933,-10849078.349537801,42177335200000
3409969.9354825276,-10849086.698499613,42177335210000
3409960.74745744,-10849095.047461422,42177335220000
3401005.243289762,-10865506.768669583,42177335230000
3401016.2103529763,-10865501.536653515,42177335240000
3401027.5599978566,-10865496.52727643,42177335250000
3424646.7579138577,-10838257.872393716,42177335260000
3423840.9017541003,-10837575.595234642,42177335270000
3423837.3248247933,-10837587.061142195,42177335280000
3424651.7403758736,-10838246.629125144,42177335290000
3434013.0726919295,-10823249.444686493,42177335300000
3434020.7435503667,-10823264.918095713,42177335310000
3434028.5422610966,-10823274.825530395,42177335320000
3396222.057511577,-10865168.246098079,42177335330000
3396228.0489469096,-10865179.044088688,42177335340000
3402774.757680784,-10864621.444759306,42177335350000
3402763.78914201,-10864615.878784765,42177335360000
3402752.8206124436,-10864610.312810225,42177335370000
3426837.8201522445,-10839024.307087826,42177335380000
3426743.5211028866,-10839229.802867832,42177335400000
3421919.59366137,-10833333.320760002,42177335410000
3421910.780389535,-10833324.637839722,42177335420000
3420632.919170001,-10831836.073608832,42177335430000
3420641.3484279825,-10831824.27374281,42177335440000
3428325.4846231504,-10825993.915412512,42177335450000
3428322.673208517,-10826005.603959043,42177335460000
3434650.280798237,-10824441.565113397,42177335470000
3434638.134684872,-10824444.34810067,42177335480000
3417376.185807974,-10837402.71606544,42177335490000
3410415.307235702,-10845089.326904718,42177335500000
3430700.580698423,-10824303.417625323,42177335510000
3430688.438282236,-10824301.525193982,42177335520000
3430676.423692134,-10824299.410123656,42177335550000
3403301.258368995,-10862144.808728136,42177335560000
3403293.09540573,-10862135.791849382,42177335570000
3403284.9324475634,-10862126.886290118,42177335580000
3398986.312654785,-10870962.759552343,42177335620000
3398998.680573006,-10870960.644482018,42177335630000
3399192.8711727946,-10870991.591300458,42177335640000
3399204.6017544144,-10870988.919632679,42177335650000
3393701.8185613127,-10869324.247967357,42177335660000
3410418.497632627,-10844825.277072554,42177335670000
3410427.303132188,-10844816.594152272,42177335680000
3447516.979472243,-10822318.257146008,42177335690000
3447516.979472243,-10822305.78936304,42177335700000
3397465.147874757,-10872703.79638835,42177335710000
3397473.3072006414,-10872712.701947613,42177335720000
3397456.7335752673,-10872694.779509597,42177335730000
3446251.437258146,-10824380.784671426,42177335740000
3446238.0005748956,-10824381.45258837,42177335760000
3446099.53956643,-10824568.580652393,42177335770000
3446087.126775788,-10824568.803291375,42177335790000
3428523.8186821616,-10836991.724505432,42177335800000
3428521.3906051354,-10836979.813319918,42177335810000
3428518.834735072,-10836967.790814912,42177335820000
3399530.1295912936,-10859481.712549888,42177335830000
3399521.203925649,-10859473.363588078,42177335840000
3412760.9700857047,-10847968.939492557,42177335850000
3412763.267584644,-10847956.805668062,42177335890000
3412765.309806264,-10847944.783163054,42177335900000
3395113.816618232,-10860196.161041798,42177335910000
3395362.1237678276,-10860205.400559535,42177335920000
3395369.899375761,-10860214.974035744,42177335930000
3415420.723876388,-10839101.006216982,42177335940000
3415432.85204477,-10839103.45524578,42177335950000
3415444.4695640192,-10839106.23823305,42177335960000
3401243.842753889,-10856455.603512164,42177335970000
3401255.8302282775,-10856455.603512164,42177335980000
3399434.115250568,-10858525.589443466,42177335990000
3399436.920440432,-10858575.571894832,42177336000000
3399448.013697162,-10858570.11723978,42177336010000
3420956.0446335124,-10834378.49945906,42177336020000
3420946.8488572086,-10834386.84842087,42177336030000
3420926.2861031597,-10834362.692091366,42177336040000
3420929.095918568,-10834403.546344489,42177336050000
3420646.584787961,-10842091.826976126,42177336060000
3420635.60120604,-10842113.756915811,42177336070000
3420641.3484279825,-10842102.624966733,42177336080000
3391708.48123654,-10864903.1943905,42177336090000
3391720.58741445,-10864902.749112539,42177336100000
3413731.4441483454,-10843803.920744525,42177336110000
3413739.613643507,-10843813.271581752,42177336120000
3413751.357301774,-10844080.99495711,42177336130000
3413760.9309440576,-10844088.787321467,42177336140000
3422028.5466310536,-10833216.76925314,42177336160000
3414224.6865975736,-10845441.653093077,42177336170000
3422019.9887446044,-10833208.086332858,42177336310000
3413165.2084919615,-10844092.460864663,42177336320000
3418813.348976835,-10840971.17366231,42177336330000
3418821.904754614,-10840962.490742028,42177336340000
3418830.7159346207,-10840953.807821747,42177336350000
3413086.836062621,-10844627.128378943,42177336360000
3393784.025864897,-10861639.863517897,42177336370000
3393777.015919663,-10861630.067402707,42177336380000
3422011.5585933123,-10833199.069454106,42177336390000
3420964.6018200777,-10834369.816538779,42177336400000
3413098.196206406,-10844631.469839083,42177336410000
3430959.02513474,-10824333.362568349,42177336420000
3430965.7994646477,-10824343.603961501,42177336440000
3430972.445980447,-10824353.845354652,42177336450000
3403113.2564150156,-10859477.148450764,42177336520000
3403100.8846038086,-10859477.037131274,42177336560000
3403088.640348581,-10859477.259770257,42177336570000
3419439.7233937955,-10846988.994015103,42177336580000
3392235.9386653206,-10867907.37348854,42177336590000
3392235.9386653206,-10867919.395993546,42177336600000
3392237.3404891468,-10868066.00376292,42177336630000
3392237.3404891468,-10868078.026267927,42177336640000
3428302.098783599,-10825621.551715808,42177336650000
3428301.076452778,-10825633.796859795,42177336670000
3420952.0853401413,-10841819.428182155,42177336710000
3420943.1450047027,-10841827.777143963,42177336720000
3420934.332394352,-10841836.126105774,42177336730000
3404898.236154154,-10854225.094875138,42177336740000
3404896.8329729624,-10854237.228699636,42177336750000
3404863.9220392,-10854219.306261618,42177336760000
3404899.639335494,-10854213.072370134,42177336770000
3421312.641416397,-10832154.447352502,42177336780000
3421302.551330075,-10832149.660614397,42177336790000
3421292.33352912,-10832144.539917821,42177336800000
3420670.8508739173,-10831353.948894206,42177336810000
3416876.1847110223,-10837697.044799099,42177336820000
3416907.721495929,-10837703.278690582,42177336830000
3416858.437323139,-10837714.076681191,42177336840000
3416849.627477704,-10837722.759601472,42177336850000
3422037.7431720216,-10836135.788940722,42177336860000
3422044.8960417123,-10836125.992825532,42177336870000
3397620.9408822167,-10857084.892593617,42177336890000
3397629.1003052467,-10857078.436063152,42177336900000
3397637.2597333645,-10857071.979532687,42177336910000
3416881.547235862,-10837687.248683907,42177336920000
3396114.467097035,-10858968.752336312,42177336930000
3396124.027820819,-10858961.40524992,42177336940000
3396104.523951705,-10858976.433381176,42177337000000
3395661.551743039,-10860234.788905105,42177337010000
3395653.138602971,-10860241.02279659,42177337020000
3395644.852940009,-10860247.479327055,42177337030000
3423099.348705192,-10834865.856189752,42177337040000
3423109.951146736,-10834865.52223128,42177337050000
3423120.6813373347,-10834865.52223128,42177337060000
3423130.900574713,-10834865.188272808,42177337070000
3393764.2705743005,-10862908.683073958,42177337080000
3393769.496164399,-10862917.699952714,42177337090000
3393774.466849598,-10862926.939470448,42177337100000
3421020.287529824,-10834271.521428408,42177337110000
3421012.752064332,-10834263.729064051,42177337120000
3421237.7961522373,-10834069.587872108,42177337130000
3421245.2040260765,-10834062.129466226,42177337140000
3416016.1664419617,-10844914.44398468,42177337150000
3411079.181841218,-10856349.62735693,42177337160000
3414505.5265603284,-10837053.618142314,42177337170000
3423726.5682507725,-10840884.901056945,42177337180000
3423716.7317840485,-10840888.35196116,42177337190000
3423706.767578591,-10840891.691545883,42177337200000
3394762.268655634,-10863191.657219557,42177337210000
3394757.6799846627,-10863182.30638233,42177337250000
3394752.708926256,-10863172.732906122,42177337270000
3434824.6746697063,-10824536.520639047,42177337280000
3434478.318463442,-10823265.363373676,42177337290000
3394932.94286545,-10860326.627485009,42177337300000
3394925.167517012,-10860333.75193242,42177337360000
3394917.00977935,-10860340.542421358,42177337370000
3394909.23444037,-10860347.66686877,42177337380000
3422455.426261653,-10831806.35130479,42177337390000
3422461.429755523,-10831797.668384507,42177337420000
3424578.025684016,-10838355.944865102,42177337430000
3404195.899032001,-10855616.699829545,42177337440000
3404204.4452248113,-10855610.465938061,42177337450000
3404212.8638679706,-10855604.343366068,42177337460000
3404221.410071875,-10855598.443433056,42177337470000
3414408.7637442914,-10837434.219481336,42177337480000
3414403.1469274303,-10837425.536561053,42177337490000
3414397.402458145,-10837416.63100179,42177337500000
3414391.785646181,-10837407.948081508,42177337510000
3400225.0751170386,-10870955.189826969,42177337520000
3400266.007922606,-10870989.364910644,42177337530000
3400275.8267143345,-10870993.37241231,42177337540000
3394146.891244857,-10861437.9299616,42177337550000
3394156.1956175733,-10861433.031904003,42177337560000
3394165.7549114963,-10861428.133846408,42177337570000
3393764.5254810867,-10869208.25305795,42177337580000
3393767.3294560546,-10869198.34562327,42177337590000
3393770.1334316265,-10869188.215549607,42177337600000
3402200.3247311376,-10854748.407801358,42177337610000
3402220.4753709035,-10854723.917513384,42177337620000
3402213.715975621,-10854731.93251672,42177337630000
3402206.9565838333,-10854740.28147853,42177337660000
3421661.7121326416,-10833639.449359683,42177337670000
3421638.849182904,-10833601.934691286,42177337680000
3415515.4515549988,-10836982.373668205,42177337690000
3415509.834261046,-10836972.688872507,42177337700000
3415473.066578614,-10836933.170453275,42177337710000
3415467.4493029355,-10836923.485657576,42177337720000
3422453.510253553,-10830508.14340316,42177337780000
3422453.38251969,-10830497.01145408,42177337790000
3395963.1536384085,-10860288.77885814,42177337820000
3395943.9049582104,-10860300.244765691,42177337830000
3395953.5930321235,-10860294.456152169,42177337840000
3395972.7142516766,-10860282.99024462,42177337850000
3422444.185684832,-10845768.487118047,42177337860000
3422440.736873436,-10845758.023085913,42177337870000
3422120.256872143,-10836009.21867969,42177337910000
3422128.048440532,-10836001.537634825,42177337920000
3422167.2618145975,-10836023.578894002,42177337930000
3422144.397976261,-10835985.730267135,42177337940000
3422436.7771281484,-10845747.447734287,42177338030000
3423400.4358598622,-10834467.777690677,42177338040000
3423431.8607164877,-10834486.479365129,42177338060000
3423432.11620344,-10834475.013457576,42177338070000
3392488.3968110145,-10863898.758625073,42177338080000
3392498.0823289454,-10863893.303970026,42177338090000
3392507.895295204,-10863887.849314976,42177338140000
3392485.9754326507,-10863852.004438942,42177338230000
3391647.0584851503,-10864637.252126997,42177338240000
3391646.8036195603,-10864648.384076077,42177338250000
3392478.5838593594,-10863904.324599613,42177338330000
3423952.553542206,-10837357.297713198,42177338340000
3423957.280240892,-10837347.167639535,42177338350000
3423962.0069412934,-10837337.037565872,42177338360000
3422113.1039610067,-10841366.580493608,42177338380000
3422108.8888545013,-10841376.93320625,42177338390000
3422104.801479801,-10841387.285918895,42177338420000
3422100.5863759858,-10841397.63863154,42177338470000
3434831.9624411953,-10824119.07254857,42177338480000
3434827.1039264146,-10824109.053794399,42177338490000
3434822.2454134533,-10824098.923720736,42177338560000
3434814.3183698966,-10824538.747028861,42177338570000
3422096.24354318,-10841408.102663675,42177338580000
3426406.963409617,-10836435.127051467,42177338590000
3426385.369838526,-10836411.749958398,42177338610000
3412567.3434356516,-10850729.106266776,42177338620000
3412570.4067221624,-10850739.792937892,42177338630000
3410610.6885827905,-10856413.302105661,42177338670000
3410602.903900964,-10856421.317108998,42177338680000
3410594.9916061605,-10856429.332112337,42177338690000
3401441.7650150694,-10865446.099547101,42177338700000
3401449.7992938557,-10865432.518569224,42177338710000
3401457.961105932,-10865424.94884385,42177338720000
3401465.7403378137,-10865420.162105745,42177338730000
3394747.1005549356,-10861122.895802652,42177338740000
3394730.4029181795,-10861107.978990886,42177338750000
3394617.4713690393,-10861007.568810191,42177338790000
3417445.135371459,-10842253.017598795,42177338800000
3417453.3071957757,-10842245.33655393,42177338810000
3417461.3513403474,-10842237.544189574,42177338820000
3417510.3824242232,-10842229.86314471,42177338870000
3394738.5605395827,-10861115.43739677,42177338880000
3394625.628920088,-10861014.915896585,42177338890000
3394608.931438228,-10861000.110404309,42177338900000
3415366.3387548868,-10837005.973400254,42177338910000
3415372.0836513634,-10837015.658195952,42177338920000
3415408.9787135567,-10837055.065295693,42177338930000
3415383.3181229075,-10837034.91646786,42177338940000
3394798.978081311,-10860712.238201117,42177338950000
3394841.296019164,-10860746.52460428,42177338960000
3394820.1370331417,-10860720.364523945,42177339000000
3394830.461594338,-10860724.372025615,42177339010000
3414564.7590344427,-10837171.060205098,42177339020000
3414569.099355635,-10837181.635556726,42177339030000
3414573.6949914107,-10837191.765630387,42177339040000
3414577.907658964,-10837202.007023541,42177339050000
3414582.1203278797,-10837212.471055675,42177339060000
3394632.8942432697,-10861357.223330773,42177339070000
3394654.817699059,-10861392.845567828,42177339080000
3394644.8756622327,-10861398.300222877,42177339090000
3394635.1885566907,-10861403.643558433,42177339100000
3424094.7385002016,-10837027.012784012,42177339110000
3424097.932250271,-10837016.326112896,42177339120000
3424100.359500847,-10837008.19979007,42177339130000
3401764.4153315094,-10865243.94335182,42177339140000
3401774.3627800667,-10865238.377377281,42177339150000
3401783.9276415864,-10865232.81140274,42177339160000
3401793.4925101055,-10865226.91146973,42177339170000
3430273.4301069193,-10824346.38694877,42177339180000
3430271.6407563863,-10824335.254999692,42177339190000
3430269.5957846534,-10824324.457009083,42177339280000
3423089.895933278,-10837488.654712332,42177339290000
3423116.3381638844,-10837532.180633234,42177339300000
3423111.8672515494,-10837542.422026386,42177339310000
3423076.3554881783,-10837522.829796007,42177339320000
3424769.914714262,-10842113.868235303,42177339330000
3424769.531444402,-10842125.000184383,42177339340000
3424769.148174551,-10842136.132133462,42177339350000
3424768.892661326,-10842147.486721523,42177339360000
3426148.3540056073,-10825697.026330564,42177339370000
3426179.4021947896,-10825737.880583687,42177339380000
3426179.4021947896,-10825749.012532765,42177339460000
3426179.4021947896,-10825760.255801337,42177339470000
3424222.8723685867,-10840671.390273605,42177339480000
3424219.167582976,-10840660.814921979,42177339490000
3424215.462798421,-10840650.350889845,42177339540000
3421158.864241172,-10832166.692496488,42177339550000
3419777.7610102952,-10832909.972736517,42177339560000
3419683.0023190514,-10832943.591222733,42177339570000
3419691.1755482513,-10832936.244136343,42177339600000
3419699.221075757,-10832928.451771986,42177339610000
3434514.6285360423,-10824209.352655604,42177339620000
3434512.3271903954,-10824198.332026014,42177339630000
3421163.8453670335,-10832155.56054741,42177339640000
3421166.910676206,-10832145.987071201,42177339650000
3421202.1617835746,-10832168.028330378,42177339660000
3421175.851165409,-10832125.281645913,42177339670000
3391676.495493977,-10864895.735984618,42177339680000
3391667.447748294,-10864894.734109202,42177339690000
3395970.674653595,-10865683.432701472,42177339700000
3395933.706993414,-10865662.838595675,42177339710000
3395928.2255906207,-10865672.634710865,42177339720000
3395944.66980589,-10865643.357684787,42177339730000
3405301.593215035,-10862948.20149319,42177339750000
3405321.2383742,-10862983.04449381,42177339760000
3405310.3952632137,-10862984.825605663,42177339800000
3428399.4761633785,-10844260.887254234,42177339810000
3428438.836256372,-10844283.707749845,42177339820000
3428416.728137506,-10844246.52703992,42177339830000
3404791.4672524594,-10855352.983955856,42177339840000
3404799.6311520007,-10855345.302910993,42177339850000
3404807.7950566453,-10855337.733185617,42177339860000
